Trace
Swept SA
A.17.55,N9010A
526 B25 DP2 EP3 FS1 MPB RTL ,01
Segment,0
Number of Points,2000
Sweep Time,0.050641333333
Start Frequency,16500000000
Stop Frequency,26500000000
Average Count,100
Average Type,Power(RMS)
RBW,3000000
RBW Filter,Gaussian
RBW Filter BW,3dB
VBW,300000
Sweep Type,Swept
X Axis Scale,Lin
PreAmp State,Off
PreAmp Band,Low
Trigger Source,Free
Trigger Level,1.2
Trigger Slope,Positive
Trigger Delay,0
Phase Noise Optimization,Fast
Swept If Gain,Low
FFT If Gain,Autorange
RF Coupling,AC
FFT Width,411900
Ext Ref,10000000
Input,RF
RF Calibrator,Off
Attenuation,10
Ref Level Offset,0
External Gain,0
Trace Type,Average
Detector,Average
Trace Math,Off
Trace Math Oper1,Trace5
Trace Math Oper2,Trace6
Trace Math Offset,0
Normalize,Off
Trace Name,Trace1
X Axis Units,Hz
Y Axis Units,dBm
DATA
16500000000,-52.4579090156723
16505002501.2506,-52.287871587034
16510005002.5013,-51.9648162030599
16515007503.7519,-51.7100625706544
16520010005.0025,-51.5674104575631
16525012506.2531,-51.6131262283715
16530015007.5038,-51.6783601212456
16535017508.7544,-51.9592936907478
16540020010.005,-52.2640619961102
16545022511.2556,-52.6449225476564
16550025012.5063,-53.0815811712266
16555027513.7569,-53.3906881040031
16560030015.0075,-53.666736888668
16565032516.2581,-53.990253948879
16570035017.5088,-54.0280392963533
16575037518.7594,-54.1006935828195
16580040020.01,-53.9160370581463
16585042521.2606,-53.7390826138064
16590045022.5113,-53.5537065979997
16595047523.7619,-53.2417010594574
16600050025.0125,-52.932638176972
16605052526.2631,-52.7357280082522
16610055027.5138,-52.6182432141094
16615057528.7644,-52.5678396216093
16620060030.015,-52.6987180999771
16625062531.2656,-52.812164869058
16630065032.5163,-53.0957814883285
16635067533.7669,-53.4407966988285
16640070035.0175,-53.7182108697837
16645072536.2681,-53.933118369286
16650075037.5188,-54.0453864031506
16655077538.7694,-54.1562365396513
16660080040.02,-54.2184504284602
16665082541.2706,-54.1477502821283
16670085042.5213,-54.0736951355585
16675087543.7719,-53.9041857686484
16680090045.0225,-53.6534333073504
16685092546.2731,-53.3477621242771
16690095047.5238,-53.0946397323005
16695097548.7744,-52.8401568425935
16700100050.025,-52.5593258178883
16705102551.2756,-52.4768815952989
16710105052.5263,-52.4301795348314
16715107553.7769,-52.5955486563973
16720110055.0275,-52.8920843545825
16725112556.2781,-53.1710367755815
16730115057.5288,-53.5120374059949
16735117558.7794,-53.8332321440685
16740120060.03,-54.0610764953071
16745122561.2806,-54.2877739348722
16750125062.5313,-54.3257371723157
16755127563.7819,-54.3147018212463
16760130065.0325,-54.2366720393923
16765132566.2831,-54.0472118026184
16770135067.5338,-53.696505358251
16775137568.7844,-53.3256596613146
16780140070.035,-52.9290432240213
16785142571.2856,-52.6448809856914
16790145072.5363,-52.4108552151025
16795147573.7869,-52.301103322335
16800150075.0375,-52.3201878666641
16805152576.2881,-52.5635331845258
16810155077.5388,-52.7597284392688
16815157578.7894,-53.0603609041529
16820160080.04,-53.3275683904105
16825162581.2906,-53.5857925151788
16830165082.5413,-53.7277884903628
16835167583.7919,-53.8354527709376
16840170085.0425,-53.8528948959241
16845172586.2931,-53.7841172463487
16850175087.5438,-53.5965840010755
16855177588.7944,-53.474881049872
16860180090.045,-53.136063244221
16865182591.2956,-52.8301990213124
16870185092.5463,-52.6160122758544
16875187593.7969,-52.3056979346495
16880190095.0475,-52.1508107784231
16885192596.2981,-52.0214017711903
16890195097.5488,-52.0193313374938
16895197598.7994,-52.1558736153088
16900200100.05,-52.3972210880474
16905202601.3007,-52.6057333601986
16910205102.5513,-52.8262999573263
16915207603.8019,-53.0443462060345
16920210105.0525,-53.1483401157988
16925212606.3032,-53.2844646204011
16930215107.5538,-53.3146480529825
16935217608.8044,-53.2408463192656
16940220110.055,-53.3190833201426
16945222611.3057,-53.193105257388
16950225112.5563,-52.967244630014
16955227613.8069,-52.8735671165904
16960230115.0575,-52.7093033682611
16965232616.3082,-52.5697466585015
16970235117.5588,-52.3548793832246
16975237618.8094,-52.3394145239507
16980240120.06,-52.4003305143401
16985242621.3107,-52.5266086819231
16990245122.5613,-52.7996620754775
16995247623.8119,-53.0994488435357
17000250125.0625,-53.3225618223513
17005252626.3132,-53.556740205565
17010255127.5638,-53.7734628647907
17015257628.8144,-53.9153213800906
17020260130.065,-53.9695114237761
17025262631.3157,-53.9347680789059
17030265132.5663,-53.885608806202
17035267633.8169,-53.7153497930497
17040270135.0675,-53.5638940946045
17045272636.3182,-53.3759896714681
17050275137.5688,-53.1476655305068
17055277638.8194,-52.9331878544559
17060280140.07,-52.770180385352
17065282641.3207,-52.6929568615164
17070285142.5713,-52.7158404176819
17075287643.8219,-52.8227601697
17080290145.0725,-52.9895992536649
17085292646.3232,-53.2795130046946
17090295147.5738,-53.5893636497098
17095297648.8244,-53.7506750847678
17100300150.075,-53.49900220282
17105302651.3257,-53.6257864554045
17110305152.5763,-53.7326494911326
17115307653.8269,-53.6574800555116
17120310155.0775,-53.6171201279358
17125312656.3282,-53.5104855980448
17130315157.5788,-53.3366484723479
17135317658.8294,-53.1239371057902
17140320160.08,-53.030330708355
17145322661.3307,-52.7934999047333
17150325162.5813,-52.5908075001482
17155327663.8319,-52.5571732972811
17160330165.0825,-52.6440521495196
17165332666.3332,-52.7667915632906
17170335167.5838,-52.9171367803801
17175337668.8344,-53.2375759049935
17180340170.085,-53.6164841937484
17185342671.3357,-53.9804792213165
17190345172.5863,-54.2575917200435
17195347673.8369,-54.5586299403208
17200350175.0875,-54.6932213039906
17205352676.3382,-54.8891199325608
17210355177.5888,-54.9511108205945
17215357678.8394,-54.9047885902727
17220360180.09,-54.8151655865158
17225362681.3407,-54.6698222626186
17230365182.5913,-54.5505830253977
17235367683.8419,-54.4381174454018
17240370185.0925,-54.3760529950109
17245372686.3432,-54.3162508582214
17250375187.5938,-54.4441290684096
17255377688.8444,-54.5341668892641
17260380190.095,-54.8299678874325
17265382691.3457,-55.1297987681631
17270385192.5963,-55.3889364836399
17275387693.8469,-55.6671846715306
17280390195.0975,-55.9596362780694
17285392696.3482,-56.116167032466
17290395197.5988,-56.2465593258532
17295397698.8494,-56.4000967542493
17300400200.1001,-56.4496466781172
17305402701.3507,-56.4264154007768
17310405202.6013,-56.3272781853661
17315407703.8519,-56.2595670486738
17320410205.1026,-56.1632961898926
17325412706.3532,-56.0680403741124
17330415207.6038,-55.9603813816125
17335417708.8544,-55.8992361155965
17340420210.1051,-55.9292853295394
17345422711.3557,-55.9698165177393
17350425212.6063,-56.0345421957243
17355427713.8569,-56.1240628030149
17360430215.1076,-56.2336748953958
17365432716.3582,-56.3410378586025
17370435217.6088,-56.4238218529955
17375437718.8594,-56.5346122065004
17380440220.1101,-56.5005901249392
17385442721.3607,-56.5742657224132
17390445222.6113,-56.5426392105943
17395447723.8619,-56.364377447903
17400450225.1126,-56.3559878527367
17405452726.3632,-56.1736411090057
17410455227.6138,-56.077078384717
17415457728.8644,-55.9437333925638
17420460230.1151,-55.8289495635879
17425462731.3657,-55.8269682448377
17430465232.6163,-55.8466397097015
17435467733.8669,-55.9558451748258
17440470235.1176,-55.9718090342293
17445472736.3682,-56.0884021653854
17450475237.6188,-56.2252803622587
17455477738.8694,-56.2673795157493
17460480240.1201,-56.3168222324169
17465482741.3707,-56.3097275524845
17470485242.6213,-56.3421112927439
17475487743.8719,-56.294616775624
17480490245.1226,-56.2012068854601
17485492746.3732,-56.110779395263
17490495247.6238,-55.9801776684086
17495497748.8744,-55.8556098918728
17500500250.1251,-55.8107731057635
17505502751.3757,-55.7001155775186
17510505252.6263,-55.5530380500728
17515507753.8769,-55.4938554789738
17520510255.1276,-55.3910389345926
17525512756.3782,-55.4916002078246
17530515257.6288,-55.4968443363747
17535517758.8794,-55.4854795245652
17540520260.1301,-55.5197212640645
17545522761.3807,-55.5916186847733
17550525262.6313,-55.5789240669856
17555527763.8819,-55.4968098892043
17560530265.1326,-55.5000603433615
17565532766.3832,-55.3697442581055
17570535267.6338,-55.274058961305
17575537768.8844,-55.1896206776152
17580540270.1351,-55.0420498482429
17585542771.3857,-55.0125158816752
17590545272.6363,-54.8764793972616
17595547773.8869,-54.7779083719817
17600550275.1376,-54.7557641026425
17605552776.3882,-54.6681986414736
17610555277.6388,-54.661008556328
17615557778.8894,-54.6563043683013
17620560280.1401,-54.6794251000583
17625562781.3907,-54.6963083702877
17630565282.6413,-54.7879251299119
17635567783.8919,-54.8355414532389
17640570285.1426,-54.8936672159226
17645572786.3932,-54.9536981962821
17650575287.6438,-55.089262070274
17655577788.8944,-55.0627108922079
17660580290.1451,-55.122647147771
17665582791.3957,-55.219452421039
17670585292.6463,-55.1536569480903
17675587793.897,-55.1953130303744
17680590295.1476,-55.1349513454052
17685592796.3982,-55.1228132429558
17690595297.6488,-55.0786076154564
17695597798.8994,-55.0076553441734
17700600300.1501,-54.9403162250724
17705602801.4007,-55.0195130046503
17710605302.6513,-55.0399896342626
17715607803.902,-55.0450839092867
17720610305.1526,-55.1776185474966
17725612806.4032,-55.3520555996301
17730615307.6538,-55.3797036277764
17735617808.9045,-55.5382013036107
17740620310.1551,-55.7023426330094
17745622811.4057,-55.7899348960188
17750625312.6563,-55.9325183250107
17755627813.907,-56.0518392429367
17760630315.1576,-56.1713956235159
17765632816.4082,-56.2677221997263
17770635317.6588,-56.3630382278562
17775637818.9095,-56.4503126758876
17780640320.1601,-56.4870273721749
17785642821.4107,-56.5472473504689
17790645322.6613,-56.5650997853692
17795647823.912,-56.6124413789052
17800650325.1626,-56.6023624433982
17805652826.4132,-56.6363410564766
17810655327.6638,-56.7372558868021
17815657828.9145,-56.8297952595297
17820660330.1651,-56.9589133065073
17825662831.4157,-57.1225851636161
17830665332.6663,-57.2589587872675
17835667833.917,-57.5424844992081
17840670335.1676,-57.5995121065569
17845672836.4182,-57.8826190691279
17850675337.6688,-58.0167495652947
17855677838.9195,-58.2249605645185
17860680340.1701,-58.2926808283605
17865682841.4207,-58.4155424485311
17870685342.6713,-58.5405815896591
17875687843.922,-58.5163132061833
17880690345.1726,-58.4759872361402
17885692846.4232,-58.4853101377584
17890695347.6738,-58.4507918097907
17895697848.9245,-58.409247500526
17900700350.1751,-58.4497172731974
17905702851.4257,-58.5002789113981
17910705352.6763,-58.6247015215187
17915707853.927,-58.681236795533
17920710355.1776,-58.777876838143
17925712856.4282,-58.9814843153
17930715357.6788,-59.1149130075935
17935717858.9295,-59.163951764045
17940720360.1801,-59.3805761082218
17945722861.4307,-59.4345779434938
17950725362.6813,-59.5318225226295
17955727863.932,-59.6128692160243
17960730365.1826,-59.6372129294893
17965732866.4332,-59.6819695062987
17970735367.6838,-59.7269222848527
17975737868.9345,-59.7454136149411
17980740370.1851,-59.736455915157
17985742871.4357,-59.7326023298207
17990745372.6863,-59.7340825866734
17995747873.937,-59.6841748540023
18000750375.1876,-59.5384608109682
18005752876.4382,-59.5415102065112
18010755377.6888,-59.4814719376272
18015757878.9395,-59.5676169770532
18020760380.1901,-59.5007991162649
18025762881.4407,-59.5211345518676
18030765382.6913,-59.4341070625592
18035767883.942,-59.4913419272289
18040770385.1926,-59.4273838921538
18045772886.4432,-59.4968725454012
18050775387.6938,-59.3974966524553
18055777888.9445,-59.3300650652249
18060780390.1951,-59.3184918979119
18065782891.4457,-59.2796115745294
18070785392.6964,-59.1378521247286
18075787893.947,-58.9623019229049
18080790395.1976,-58.9036460221819
18085792896.4482,-58.6520715124754
18090795397.6988,-58.5360207615398
18095797898.9495,-58.3986969817329
18100800400.2001,-58.3537547399665
18105802901.4507,-58.2353987541148
18110805402.7014,-58.1111020905464
18115807903.952,-58.0814944213951
18120810405.2026,-57.9539431614472
18125812906.4532,-57.9077804223578
18130815407.7039,-57.8302651237813
18135817908.9545,-57.7079978288534
18140820410.2051,-57.6375841078819
18145822911.4557,-57.5514072104305
18150825412.7064,-57.3527280948178
18155827913.957,-57.2454540102067
18160830415.2076,-57.0998078286201
18165832916.4582,-56.987481572198
18170835417.7089,-56.9212996894666
18175837918.9595,-56.8849393180916
18180840420.2101,-56.7235602422682
18185842921.4607,-56.7129263395631
18190845422.7114,-56.5326962069758
18195847923.962,-56.4790448439346
18200850425.2126,-56.4633358813919
18205852926.4632,-56.4259409535372
18210855427.7139,-56.385197075212
18215857928.9645,-56.3665977655576
18220860430.2151,-56.3133363532826
18225862931.4657,-56.293806426549
18230865432.7164,-56.2926739594261
18235867933.967,-56.2291722170529
18240870435.2176,-56.196951903303
18245872936.4682,-56.1383947972704
18250875437.7189,-56.0067038522164
18255877938.9695,-55.9425791332827
18260880440.2201,-55.8336311121962
18265882941.4707,-55.7938752249909
18270885442.7214,-55.7618947708556
18275887943.972,-55.7585980717539
18280890445.2226,-55.8158710356022
18285892946.4732,-55.8304277091137
18290895447.7239,-56.0221702376541
18295897948.9745,-56.0316361002304
18300900450.2251,-56.3200684520564
18305902951.4757,-56.4524533212153
18310905452.7264,-56.6301468365211
18315907953.977,-56.7444814138599
18320910455.2276,-56.8616981296707
18325912956.4782,-56.9000791124498
18330915457.7289,-56.9518146063707
18335917958.9795,-56.9666935601823
18340920460.2301,-57.0388348994682
18345922961.4807,-57.0167596623247
18350925462.7314,-56.986777528692
18355927963.982,-57.1336442949145
18360930465.2326,-57.1622191899468
18365932966.4832,-57.2906957805469
18370935467.7339,-57.4464076908154
18375937968.9845,-57.6262590376548
18380940470.2351,-57.8467256571977
18385942971.4857,-58.0256276503495
18390945472.7364,-58.264124249558
18395947973.987,-58.4787562855701
18400950475.2376,-58.660538569615
18405952976.4882,-58.8029416175338
18410955477.7389,-58.8806008048511
18415957978.9895,-59.0626171414427
18420960480.2401,-59.062962850146
18425962981.4907,-59.1980144221746
18430965482.7414,-59.1753496410585
18435967983.992,-59.2047378590864
18440970485.2426,-59.1956767536656
18445972986.4932,-59.1799453033594
18450975487.7439,-59.1781468261529
18455977988.9945,-59.2325176761429
18460980490.2451,-59.2183444823078
18465982991.4957,-59.2830978629659
18470985492.7464,-59.3371096120711
18475987993.997,-59.4075599698139
18480990495.2476,-59.5516946572395
18485992996.4982,-59.5652133592
18490995497.7489,-59.6857092707238
18495997998.9995,-59.7873384936095
18501000500.2501,-59.965119547664
18506003001.5008,-60.0764482741908
18511005502.7514,-60.0715338345704
18516008004.002,-60.1742077994761
18521010505.2526,-60.1877607915135
18526013006.5033,-60.2445707247009
18531015507.7539,-60.2717980963574
18536018009.0045,-60.2643376147796
18541020510.2551,-60.1858056196976
18546023011.5058,-60.1379193261046
18551025512.7564,-60.1126417909231
18556028014.007,-60.1264579471973
18561030515.2576,-59.9781331096749
18566033016.5083,-60.0761637917443
18571035517.7589,-60.1044276943044
18576038019.0095,-60.0767862538015
18581040520.2601,-60.1443503763083
18586043021.5108,-60.1656251525384
18591045522.7614,-60.2215981135299
18596048024.012,-60.1931797972246
18601050525.2626,-60.2320865569817
18606053026.5133,-60.281330312142
18611055527.7639,-60.2284681078433
18616058029.0145,-60.2503975291828
18621060530.2651,-60.2052248408238
18626063031.5158,-60.1912703508648
18631065532.7664,-60.1398620252488
18636068034.017,-60.0741973711395
18641070535.2676,-60.0020380873895
18646073036.5183,-59.9730719768203
18651075537.7689,-59.892413774666
18656078039.0195,-59.8390787195398
18661080540.2701,-59.7202352646557
18666083041.5208,-59.6631815851767
18671085542.7714,-59.6586629143117
18676088044.022,-59.7045025848578
18681090545.2726,-59.6481569388702
18686093046.5233,-59.6170200598161
18691095547.7739,-59.5955332274594
18696098049.0245,-59.5802107762645
18701100550.2751,-59.4720073763979
18706103051.5258,-59.4392755072011
18711105552.7764,-59.2654960464448
18716108054.027,-59.1774240753185
18721110555.2776,-59.1510287575784
18726113056.5283,-58.9688286135922
18731115557.7789,-58.8541349613659
18736118059.0295,-58.7971824471552
18741120560.2801,-58.7482637517575
18746123061.5308,-58.6986052302541
18751125562.7814,-58.638294157621
18756128064.032,-58.6341732990359
18761130565.2826,-58.601582511174
18766133066.5333,-58.5456931971413
18771135567.7839,-58.5556708407372
18776138069.0345,-58.5202250909667
18781140570.2851,-58.4462560323443
18786143071.5358,-58.3216190340967
18791145572.7864,-58.2628931055714
18796148074.037,-58.177004159464
18801150575.2876,-58.0405768668658
18806153076.5383,-57.9863431186992
18811155577.7889,-57.9053266444843
18816158079.0395,-57.8752138678188
18821160580.2901,-57.8428103915913
18826163081.5408,-57.8306725720449
18831165582.7914,-57.7840223358637
18836168084.042,-57.8449416999052
18841170585.2926,-57.7881262034747
18846173086.5433,-57.853092367739
18851175587.7939,-57.7909029588931
18856178089.0445,-57.739289228484
18861180590.2951,-57.8004980517028
18866183091.5458,-57.7971053371135
18871185592.7964,-57.7754388608279
18876188094.047,-57.7060295006766
18881190595.2976,-57.8056573079771
18886193096.5483,-57.7647630570946
18891195597.7989,-57.7032383864645
18896198099.0495,-57.7201316686253
18901200600.3001,-57.7563444399309
18906203101.5508,-57.6718831557266
18911205602.8014,-57.6245031491071
18916208104.052,-57.613698376826
18921210605.3027,-57.5442382537088
18926213106.5533,-57.63874698208
18931215607.8039,-57.6035314443365
18936218109.0545,-57.7686516259948
18941220610.3052,-57.9486451165949
18946223111.5558,-58.0142959756942
18951225612.8064,-58.1511655131129
18956228114.057,-58.2924455665579
18961230615.3077,-58.3984034925641
18966233116.5583,-58.4886880215019
18971235617.8089,-58.5202139084503
18976238119.0595,-58.5736799984001
18981240620.3102,-58.6267458155198
18986243121.5608,-58.6537934783875
18991245622.8114,-58.663101517097
18996248124.062,-58.6785334917609
19001250625.3127,-58.6892292180918
19006253126.5633,-58.7321351352564
19011255627.8139,-58.8034730727275
19016258129.0645,-58.8685847201907
19021260630.3152,-58.9116437457876
19026263131.5658,-58.9414097651912
19031265632.8164,-59.0624458985441
19036268134.067,-59.1528535758901
19041270635.3177,-59.2961555708412
19046273136.5683,-59.3929984119217
19051275637.8189,-59.4680568112877
19056278139.0695,-59.5567972729837
19061280640.3202,-59.6829752800682
19066283141.5708,-59.7284191358175
19071285642.8214,-59.7797452496218
19076288144.072,-59.8369837280947
19081290645.3227,-59.9170015626652
19086293146.5733,-59.9557053390321
19091295647.8239,-59.9892379594316
19096298149.0745,-60.0045455514613
19101300650.3252,-60.0047676385158
19106303151.5758,-59.9919385308605
19111305652.8264,-60.0277970220767
19116308154.077,-59.9085528349951
19121310655.3277,-59.9192613155168
19126313156.5783,-59.9085334544857
19131315657.8289,-59.9474149193154
19136318159.0795,-59.9263919180652
19141320660.3302,-59.8907211205319
19146323161.5808,-59.8836626959948
19151325662.8314,-59.8856860639536
19156328164.082,-59.9221984994618
19161330665.3327,-59.959751737867
19166333166.5833,-59.9669415565045
19171335667.8339,-60.0416612804338
