Trace
Swept SA
A.17.55,N9010A
526 B25 DP2 EP3 FS1 MPB RTL ,01
Segment,0
Number of Points,2000
Sweep Time,0.050641333333
Start Frequency,16500000000
Stop Frequency,26500000000
Average Count,100
Average Type,Power(RMS)
RBW,3000000
RBW Filter,Gaussian
RBW Filter BW,3dB
VBW,300000
Sweep Type,Swept
X Axis Scale,Lin
PreAmp State,Off
PreAmp Band,Low
Trigger Source,Free
Trigger Level,1.2
Trigger Slope,Positive
Trigger Delay,0
Phase Noise Optimization,Fast
Swept If Gain,Low
FFT If Gain,Autorange
RF Coupling,AC
FFT Width,411900
Ext Ref,10000000
Input,RF
RF Calibrator,Off
Attenuation,10
Ref Level Offset,0
External Gain,0
Trace Type,Average
Detector,Average
Trace Math,Off
Trace Math Oper1,Trace5
Trace Math Oper2,Trace6
Trace Math Offset,0
Normalize,Off
Trace Name,Trace1
X Axis Units,Hz
Y Axis Units,dBm
DATA
16500000000,-52.9249837148763
16505002501.2506,-52.7213472858177
16510005002.5013,-52.5402008765291
16515007503.7519,-52.2948754873235
16520010005.0025,-52.1189810239815
16525012506.2531,-52.085198524759
16530015007.5038,-52.1507329100504
16535017508.7544,-52.404478828348
16540020010.005,-52.772523708396
16545022511.2556,-53.103630532933
16550025012.5063,-53.4797538664613
16555027513.7569,-53.8164460349127
16560030015.0075,-54.2052022277961
16565032516.2581,-54.380009547636
16570035017.5088,-54.484721940343
16575037518.7594,-54.5314613326259
16580040020.01,-54.4692985648
16585042521.2606,-54.3607125516747
16590045022.5113,-54.0916548765547
16595047523.7619,-53.8833395785208
16600050025.0125,-53.6732274117741
16605052526.2631,-53.3841951407869
16610055027.5138,-53.270033340695
16615057528.7644,-53.2378448782375
16620060030.015,-53.3087769070972
16625062531.2656,-53.4642965567923
16630065032.5163,-53.7023019450417
16635067533.7669,-53.9194070547043
16640070035.0175,-54.1575999251418
16645072536.2681,-54.4202058132712
16650075037.5188,-54.5970241658415
16655077538.7694,-54.6055520140666
16660080040.02,-54.6902990551676
16665082541.2706,-54.6314097057153
16670085042.5213,-54.6155306642609
16675087543.7719,-54.3585809193662
16680090045.0225,-54.178168577385
16685092546.2731,-53.8867063952087
16690095047.5238,-53.6660536750745
16695097548.7744,-53.3357604242258
16700100050.025,-53.227900048666
16705102551.2756,-53.1144262833825
16710105052.5263,-53.1634707412076
16715107553.7769,-53.2844362161272
16720110055.0275,-53.533546981014
16725112556.2781,-53.8549221723891
16730115057.5288,-54.1618025287171
16735117558.7794,-54.5162539140506
16740120060.03,-54.7172907647607
16745122561.2806,-54.8458594566602
16750125062.5313,-54.9488357843093
16755127563.7819,-54.9366352522313
16760130065.0325,-54.7894227731226
16765132566.2831,-54.4772584846587
16770135067.5338,-54.1759402516211
16775137568.7844,-53.8814539470631
16780140070.035,-53.4764203234564
16785142571.2856,-53.1159045409511
16790145072.5363,-52.9095749751128
16795147573.7869,-52.7916540144571
16800150075.0375,-52.9135129388841
16805152576.2881,-53.0574739110814
16810155077.5388,-53.3917704459102
16815157578.7894,-53.6702784541923
16820160080.04,-53.9888293532682
16825162581.2906,-54.293085228436
16830165082.5413,-54.4363875126607
16835167583.7919,-54.4837821237977
16840170085.0425,-54.5019112497882
16845172586.2931,-54.4330136722352
16850175087.5438,-54.1962392384956
16855177588.7944,-54.0053075493113
16860180090.045,-53.7730131384121
16865182591.2956,-53.4683871758774
16870185092.5463,-53.1937791879423
16875187593.7969,-52.9248672874025
16880190095.0475,-52.6772481817278
16885192596.2981,-52.6178925803714
16890195097.5488,-52.6558856793062
16895197598.7994,-52.6724265344666
16900200100.05,-52.8605537430126
16905202601.3007,-53.138904891757
16910205102.5513,-53.3968153386015
16915207603.8019,-53.6254061691913
16920210105.0525,-53.8874299083585
16925212606.3032,-53.8575953928698
16930215107.5538,-53.949777306439
16935217608.8044,-53.986614631235
16940220110.055,-53.912028251688
16945222611.3057,-53.9099287065556
16950225112.5563,-53.6744929425957
16955227613.8069,-53.4700241299942
16960230115.0575,-53.2551641966372
16965232616.3082,-53.0969885976406
16970235117.5588,-52.937793620156
16975237618.8094,-52.9069091479279
16980240120.06,-52.9249128712841
16985242621.3107,-53.0415501205243
16990245122.5613,-53.2882658230162
16995247623.8119,-53.5694047027994
17000250125.0625,-53.8769913444837
17005252626.3132,-54.0169576935292
17010255127.5638,-54.1994134474786
17015257628.8144,-54.4026584621865
17020260130.065,-54.4540276987826
17025262631.3157,-54.4439803389544
17030265132.5663,-54.4636454937304
17035267633.8169,-54.290118407624
17040270135.0675,-54.1371523176082
17045272636.3182,-54.0190871975202
17050275137.5688,-53.7121869310147
17055277638.8194,-53.5431132071403
17060280140.07,-53.3833379976371
17065282641.3207,-53.2081518429184
17070285142.5713,-53.220428741909
17075287643.8219,-53.2879407941652
17080290145.0725,-53.4418485840429
17085292646.3232,-53.7220590111608
17090295147.5738,-53.9586768135163
17095297648.8244,-54.1616325427197
17100300150.075,-53.9330451384734
17105302651.3257,-54.0277827657383
17110305152.5763,-54.1119422132039
17115307653.8269,-54.1369784211516
17120310155.0775,-54.0610326771394
17125312656.3282,-53.993697344406
17130315157.5788,-53.8100716028938
17135317658.8294,-53.703506033143
17140320160.08,-53.547069643572
17145322661.3307,-53.3878354911411
17150325162.5813,-53.2148588200031
17155327663.8319,-53.1979430223544
17160330165.0825,-53.259989845744
17165332666.3332,-53.2990129768761
17170335167.5838,-53.4889408612174
17175337668.8344,-53.8108499310829
17180340170.085,-54.0744526193561
17185342671.3357,-54.4302682548519
17190345172.5863,-54.6979197548738
17195347673.8369,-54.9304696592559
17200350175.0875,-55.0943123780787
17205352676.3382,-55.2809645544849
17210355177.5888,-55.3293667489795
17215357678.8394,-55.264714102358
17220360180.09,-55.1412715594312
17225362681.3407,-55.0211835425613
17230365182.5913,-54.964524099323
17235367683.8419,-54.7932380249979
17240370185.0925,-54.6956561260198
17245372686.3432,-54.6743256660692
17250375187.5938,-54.7519146637246
17255377688.8444,-54.9103087987719
17260380190.095,-55.1354261100392
17265382691.3457,-55.4322580284481
17270385192.5963,-55.7990811462097
17275387693.8469,-55.973633344398
17280390195.0975,-56.1907240787343
17285392696.3482,-56.4883526064895
17290395197.5988,-56.6213591297435
17295397698.8494,-56.6656016751868
17300400200.1001,-56.6957875475903
17305402701.3507,-56.6400579697518
17310405202.6013,-56.6135275198572
17315407703.8519,-56.5156591760553
17320410205.1026,-56.4320463556635
17325412706.3532,-56.178792998497
17330415207.6038,-56.1395416235919
17335417708.8544,-56.1224402129983
17340420210.1051,-56.1107497629781
17345422711.3557,-56.1773317634371
17350425212.6063,-56.2288082709221
17355427713.8569,-56.3952216681816
17360430215.1076,-56.4277613556569
17365432716.3582,-56.55807349669
17370435217.6088,-56.6797165769567
17375437718.8594,-56.8090478543364
17380440220.1101,-56.8195850987414
17385442721.3607,-56.8720938226401
17390445222.6113,-56.8253935707878
17395447723.8619,-56.7844455228574
17400450225.1126,-56.6775903344336
17405452726.3632,-56.4833497513264
17410455227.6138,-56.392904346257
17415457728.8644,-56.2822471874095
17420460230.1151,-56.1673642805273
17425462731.3657,-56.1141976504694
17430465232.6163,-56.1364654939867
17435467733.8669,-56.1225949502835
17440470235.1176,-56.177811095757
17445472736.3682,-56.257449542586
17450475237.6188,-56.3258159815233
17455477738.8694,-56.4950869739593
17460480240.1201,-56.5283519615412
17465482741.3707,-56.554027457713
17470485242.6213,-56.5218012785369
17475487743.8719,-56.4738509653169
17480490245.1226,-56.4465483122333
17485492746.3732,-56.3443971697803
17490495247.6238,-56.1898680032498
17495497748.8744,-56.0899298273116
17500500250.1251,-55.895039483122
17505502751.3757,-55.7882001423366
17510505252.6263,-55.6290758205484
17515507753.8769,-55.4758712218532
17520510255.1276,-55.4594175203722
17525512756.3782,-55.4954106665815
17530515257.6288,-55.4766944249311
17535517758.8794,-55.5171989852829
17540520260.1301,-55.513377254128
17545522761.3807,-55.5500615485645
17550525262.6313,-55.5144674422233
17555527763.8819,-55.5199676090485
17560530265.1326,-55.42782571555
17565532766.3832,-55.4042177670762
17570535267.6338,-55.3657166685679
17575537768.8844,-55.2747031429428
17580540270.1351,-55.1204098812133
17585542771.3857,-54.988183109324
17590545272.6363,-55.0033070783219
17595547773.8869,-54.8970127560586
17600550275.1376,-54.862663239698
17605552776.3882,-54.8330179662122
17610555277.6388,-54.7605717662369
17615557778.8894,-54.7413486134505
17620560280.1401,-54.7064968760001
17625562781.3907,-54.773579740675
17630565282.6413,-54.8115116469617
17635567783.8919,-54.7784341754026
17640570285.1426,-54.8717548062911
17645572786.3932,-54.9671899443598
17650575287.6438,-54.9852732787468
17655577788.8944,-55.0193012366489
17660580290.1451,-55.0467287123764
17665582791.3957,-55.1199328107428
17670585292.6463,-55.088379906214
17675587793.897,-55.1705732032036
17680590295.1476,-55.1028962675484
17685592796.3982,-55.0230251380998
17690595297.6488,-55.0550771964267
17695597798.8994,-54.9848060035723
17700600300.1501,-55.0301670449134
17705602801.4007,-55.0681192285749
17710605302.6513,-55.0799584831643
17715607803.902,-55.1701983667999
17720610305.1526,-55.2622882190501
17725612806.4032,-55.3316490025192
17730615307.6538,-55.4408262555138
17735617808.9045,-55.4736279134871
17740620310.1551,-55.6564978776521
17745622811.4057,-55.7337878901139
17750625312.6563,-55.9044276271655
17755627813.907,-55.9279636401752
17760630315.1576,-56.0456168056027
17765632816.4082,-56.1432746154561
17770635317.6588,-56.2512342495972
17775637818.9095,-56.2902938396895
17780640320.1601,-56.4512324535772
17785642821.4107,-56.3685087764404
17790645322.6613,-56.3921421368112
17795647823.912,-56.5026850957524
17800650325.1626,-56.5243997610844
17805652826.4132,-56.5230458957547
17810655327.6638,-56.6551267968221
17815657828.9145,-56.7585529454099
17820660330.1651,-56.8250768468897
17825662831.4157,-57.0503171310131
17830665332.6663,-57.217553954289
17835667833.917,-57.5068469718085
17840670335.1676,-57.6923546192932
17845672836.4182,-57.8768240509928
17850675337.6688,-58.0158252563195
17855677838.9195,-58.2198773098265
17860680340.1701,-58.2846834839865
17865682841.4207,-58.4340558113008
17870685342.6713,-58.5025300808777
17875687843.922,-58.4254919016173
17880690345.1726,-58.4921287362462
17885692846.4232,-58.5263229169919
17890695347.6738,-58.4822750763069
17895697848.9245,-58.5130047012792
17900700350.1751,-58.5588365649679
17905702851.4257,-58.5781715764504
17910705352.6763,-58.64982744506
17915707853.927,-58.7470693894211
17920710355.1776,-58.8832017898063
17925712856.4282,-58.9894289419989
17930715357.6788,-59.107201981435
17935717858.9295,-59.2304368084033
17940720360.1801,-59.4035213140968
17945722861.4307,-59.4413641353379
17950725362.6813,-59.5432528009101
17955727863.932,-59.5910608893856
17960730365.1826,-59.6043928277188
17965732866.4332,-59.5918500549006
17970735367.6838,-59.6435010737785
17975737868.9345,-59.5802608819023
17980740370.1851,-59.6182477656416
17985742871.4357,-59.6725006594721
17990745372.6863,-59.5659755052674
17995747873.937,-59.5296538490887
18000750375.1876,-59.5312987389911
18005752876.4382,-59.4418595516277
18010755377.6888,-59.5074336022526
18015757878.9395,-59.4335827142335
18020760380.1901,-59.4175380489653
18025762881.4407,-59.5487148083794
18030765382.6913,-59.4715514049483
18035767883.942,-59.576063965455
18040770385.1926,-59.5377322036409
18045772886.4432,-59.4683731134561
18050775387.6938,-59.4714606474141
18055777888.9445,-59.4599239106251
18060780390.1951,-59.3500103659992
18065782891.4457,-59.2773592237685
18070785392.6964,-59.2053010341082
18075787893.947,-58.9862148416656
18080790395.1976,-58.8836091022469
18085792896.4482,-58.7326890950959
18090795397.6988,-58.5558738436925
18095797898.9495,-58.3874061095018
18100800400.2001,-58.3279804061306
18105802901.4507,-58.1790934660095
18110805402.7014,-58.124350713694
18115807903.952,-57.9723021506218
18120810405.2026,-57.9210597991511
18125812906.4532,-57.868656632755
18130815407.7039,-57.8090380761551
18135817908.9545,-57.7264183465853
18140820410.2051,-57.6506271677459
18145822911.4557,-57.5012266842301
18150825412.7064,-57.3513152668514
18155827913.957,-57.2318875601259
18160830415.2076,-57.1255076846855
18165832916.4582,-56.9967765998731
18170835417.7089,-56.8786940075773
18175837918.9595,-56.8265564313278
18180840420.2101,-56.6343016572052
18185842921.4607,-56.6116764690033
18190845422.7114,-56.4222481046981
18195847923.962,-56.4104417629923
18200850425.2126,-56.3858544538253
18205852926.4632,-56.3232528834675
18210855427.7139,-56.3341822447233
18215857928.9645,-56.2708619340253
18220860430.2151,-56.3655106038942
18225862931.4657,-56.2719467836418
18230865432.7164,-56.331577794814
18235867933.967,-56.2582314156325
18240870435.2176,-56.2104483094041
18245872936.4682,-56.1653868975851
18250875437.7189,-56.0595174043489
18255877938.9695,-56.0110108151425
18260880440.2201,-55.9791776773319
18265882941.4707,-55.916554052551
18270885442.7214,-55.9181526026504
18275887943.972,-55.922550905255
18280890445.2226,-55.9542106669849
18285892946.4732,-55.8829696378223
18290895447.7239,-56.0772544885387
18295897948.9745,-56.1686116455207
18300900450.2251,-56.3005864787151
18305902951.4757,-56.4883473459982
18310905452.7264,-56.6744896755849
18315907953.977,-56.7573616426103
18320910455.2276,-56.8910481023518
18325912956.4782,-56.9344400062729
18330915457.7289,-57.0408971950547
18335917958.9795,-57.0217037771623
18340920460.2301,-57.0241379867212
18345922961.4807,-56.9959810317466
18350925462.7314,-57.0428423180519
18355927963.982,-57.0487318270837
18360930465.2326,-57.2004644226605
18365932966.4832,-57.2920098919612
18370935467.7339,-57.3914702413291
18375937968.9845,-57.5250103485855
18380940470.2351,-57.8479954254971
18385942971.4857,-57.9329821266007
18390945472.7364,-58.1590951976786
18395947973.987,-58.3856751966042
18400950475.2376,-58.5532039814714
18405952976.4882,-58.6838519765734
18410955477.7389,-58.7937379391881
18415957978.9895,-58.8401200032126
18420960480.2401,-58.9869626389302
18425962981.4907,-58.9746938787842
18430965482.7414,-58.9965138372864
18435967983.992,-59.0974670917688
18440970485.2426,-59.1028229700564
18445972986.4932,-59.0788937751801
18450975487.7439,-59.1538946265233
18455977988.9945,-59.2288616442007
18460980490.2451,-59.2161339271827
18465982991.4957,-59.3017077376929
18470985492.7464,-59.4127653675041
18475987993.997,-59.466109398995
18480990495.2476,-59.5890834561192
18485992996.4982,-59.6234907689485
18490995497.7489,-59.7223539299142
18495997998.9995,-59.9506037196666
18501000500.2501,-60.0553123671024
18506003001.5008,-60.1512338612608
18511005502.7514,-60.1860518401854
18516008004.002,-60.2775930685636
18521010505.2526,-60.3116918688608
18526013006.5033,-60.3097742037505
18531015507.7539,-60.3127277297455
18536018009.0045,-60.309964893415
18541020510.2551,-60.192496632814
18546023011.5058,-60.223944722636
18551025512.7564,-60.1311796822505
18556028014.007,-60.1317215602111
18561030515.2576,-60.1429694013859
18566033016.5083,-60.110836378339
18571035517.7589,-60.1807095152346
18576038019.0095,-60.230180821889
18581040520.2601,-60.2862906703614
18586043021.5108,-60.2848745849534
18591045522.7614,-60.2351870440931
18596048024.012,-60.3353464221419
18601050525.2626,-60.3771523596703
18606053026.5133,-60.3952451203043
18611055527.7639,-60.4064899666351
18616058029.0145,-60.3538366922205
18621060530.2651,-60.3195117290889
18626063031.5158,-60.2533068491065
18631065532.7664,-60.1920705975086
18636068034.017,-60.1914494106963
18641070535.2676,-60.1086851882059
18646073036.5183,-60.0731274671035
18651075537.7689,-60.0553532138151
18656078039.0195,-59.9726157037405
18661080540.2701,-59.9010003396602
18666083041.5208,-59.9480442379916
18671085542.7714,-59.9627543526993
18676088044.022,-59.8738229951053
18681090545.2726,-59.8958836877225
18686093046.5233,-59.8795361764546
18691095547.7739,-59.9045677571561
18696098049.0245,-59.8224191676411
18701100550.2751,-59.8091217592983
18706103051.5258,-59.6564690394482
18711105552.7764,-59.6292436385754
18716108054.027,-59.4595138598416
18721110555.2776,-59.4625058725875
18726113056.5283,-59.3277654425553
18731115557.7789,-59.211958002892
18736118059.0295,-59.1133331407215
18741120560.2801,-59.0129764418515
18746123061.5308,-58.939440690485
18751125562.7814,-59.0077651717646
18756128064.032,-58.9725100433904
18761130565.2826,-58.9521297328217
18766133066.5333,-58.9620950329218
18771135567.7839,-58.8346372026181
18776138069.0345,-58.8281509510243
18781140570.2851,-58.7573558219753
18786143071.5358,-58.7237109073357
18791145572.7864,-58.6684453965102
18796148074.037,-58.5992482790094
18801150575.2876,-58.483790511323
18806153076.5383,-58.4535933086836
18811155577.7889,-58.4695676143024
18816158079.0395,-58.3298620471057
18821160580.2901,-58.2631984046946
18826163081.5408,-58.2709929661354
18831165582.7914,-58.2219091550474
18836168084.042,-58.309782978108
18841170585.2926,-58.2443063381988
18846173086.5433,-58.2597344416624
18851175587.7939,-58.2029806103712
18856178089.0445,-58.1495945821214
18861180590.2951,-58.2282256930893
18866183091.5458,-58.2138238828254
18871185592.7964,-58.2114719789184
18876188094.047,-58.2188719750895
18881190595.2976,-58.2405683975253
18886193096.5483,-58.182246522353
18891195597.7989,-58.2498050911806
18896198099.0495,-58.3094954751261
18901200600.3001,-58.2041638017129
18906203101.5508,-58.2362764730048
18911205602.8014,-58.2398755664257
18916208104.052,-58.2094990118454
18921210605.3027,-58.1838254551246
18926213106.5533,-58.2699586355187
18931215607.8039,-58.2656645053249
18936218109.0545,-58.3457661228086
18941220610.3052,-58.5028288250854
18946223111.5558,-58.6218283350676
18951225612.8064,-58.6889273506788
18956228114.057,-58.8305936870343
18961230615.3077,-58.8577224062016
18966233116.5583,-58.9845279713854
18971235617.8089,-58.998090709224
18976238119.0595,-59.0216956249062
18981240620.3102,-59.1573177669807
18986243121.5608,-59.1071280476185
18991245622.8114,-59.0973895371973
18996248124.062,-59.0978184587497
19001250625.3127,-59.1026048510706
19006253126.5633,-59.272836995972
19011255627.8139,-59.2391642100669
19016258129.0645,-59.369815336618
19021260630.3152,-59.3986037077438
19026263131.5658,-59.5174191985319
19031265632.8164,-59.6166335294741
19036268134.067,-59.7228071580777
19041270635.3177,-59.7302774183319
19046273136.5683,-59.862723832018
19051275637.8189,-59.941341607525
19056278139.0695,-59.9973159016599
19061280640.3202,-60.0502627958396
19066283141.5708,-60.1678076785626
19071285642.8214,-60.1700192454626
19076288144.072,-60.2171227311836
19081290645.3227,-60.2556642399058
19086293146.5733,-60.3791458734104
19091295647.8239,-60.3552646655081
19096298149.0745,-60.3901829661833
19101300650.3252,-60.3738591959907
19106303151.5758,-60.3161331770576
19111305652.8264,-60.295217719293
19116308154.077,-60.2496932850694
19121310655.3277,-60.2337820615232
19126313156.5783,-60.2066485565052
19131315657.8289,-60.1518538660366
19136318159.0795,-60.2554598898634
19141320660.3302,-60.1858619244204
19146323161.5808,-60.2242319526297
19151325662.8314,-60.2093239585249
19156328164.082,-60.1562679284079
19161330665.3327,-60.1745124004052
19166333166.5833,-60.2463454024828
19171335667.8339,-60.2077445161948
