Trace
Swept SA
A.17.55,N9010A
526 B25 DP2 EP3 FS1 MPB RTL ,01
Segment,0
Number of Points,2000
Sweep Time,0.050641333333
Start Frequency,16500000000
Stop Frequency,26500000000
Average Count,100
Average Type,Power(RMS)
RBW,3000000
RBW Filter,Gaussian
RBW Filter BW,3dB
VBW,300000
Sweep Type,Swept
X Axis Scale,Lin
PreAmp State,Off
PreAmp Band,Low
Trigger Source,Free
Trigger Level,1.2
Trigger Slope,Positive
Trigger Delay,0
Phase Noise Optimization,Fast
Swept If Gain,Low
FFT If Gain,Autorange
RF Coupling,AC
FFT Width,411900
Ext Ref,10000000
Input,RF
RF Calibrator,Off
Attenuation,10
Ref Level Offset,0
External Gain,0
Trace Type,Average
Detector,Average
Trace Math,Off
Trace Math Oper1,Trace5
Trace Math Oper2,Trace6
Trace Math Offset,0
Normalize,Off
Trace Name,Trace1
X Axis Units,Hz
Y Axis Units,dBm
DATA
16500000000,-52.8578470502041
16505002501.2506,-52.5483315524019
16510005002.5013,-52.2839273393182
16515007503.7519,-52.1177832985129
16520010005.0025,-51.8891450299226
16525012506.2531,-51.8794298367539
16530015007.5038,-51.9949033903585
16535017508.7544,-52.2289600779766
16540020010.005,-52.5835520949885
16545022511.2556,-52.9402137389286
16550025012.5063,-53.3730840803661
16555027513.7569,-53.6403213427062
16560030015.0075,-54.029450221897
16565032516.2581,-54.2226012147665
16570035017.5088,-54.2733446381296
16575037518.7594,-54.3570455061161
16580040020.01,-54.2974960514258
16585042521.2606,-54.0708780239052
16590045022.5113,-53.8674884612554
16595047523.7619,-53.6408036922164
16600050025.0125,-53.384663864328
16605052526.2631,-53.1655354095389
16610055027.5138,-52.9967519964075
16615057528.7644,-53.035911906658
16620060030.015,-53.0949561751609
16625062531.2656,-53.2486842226168
16630065032.5163,-53.5577451263217
16635067533.7669,-53.6900700142419
16640070035.0175,-54.0464485704567
16645072536.2681,-54.3381869551483
16650075037.5188,-54.4225445035761
16655077538.7694,-54.4844242695782
16660080040.02,-54.5099207358851
16665082541.2706,-54.4565063455959
16670085042.5213,-54.3736223358181
16675087543.7719,-54.1686443389509
16680090045.0225,-53.9858423661253
16685092546.2731,-53.7117016786685
16690095047.5238,-53.4512211350555
16695097548.7744,-53.1776784290434
16700100050.025,-52.9520049437412
16705102551.2756,-52.8289668819991
16710105052.5263,-52.916459710458
16715107553.7769,-53.0641585659439
16720110055.0275,-53.2762489281469
16725112556.2781,-53.6033259745128
16730115057.5288,-54.0330823038851
16735117558.7794,-54.3365470262092
16740120060.03,-54.4905287259601
16745122561.2806,-54.7237273598313
16750125062.5313,-54.8224427463143
16755127563.7819,-54.755035627127
16760130065.0325,-54.6419685870523
16765132566.2831,-54.3796641542089
16770135067.5338,-54.0485225031194
16775137568.7844,-53.6841638573927
16780140070.035,-53.3333414280577
16785142571.2856,-52.9843804466915
16790145072.5363,-52.7833542165239
16795147573.7869,-52.6870195648512
16800150075.0375,-52.745037834388
16805152576.2881,-52.9245670353959
16810155077.5388,-53.2494787709473
16815157578.7894,-53.5482901052757
16820160080.04,-53.768340855119
16825162581.2906,-54.1194502027769
16830165082.5413,-54.2791766174787
16835167583.7919,-54.2562145486961
16840170085.0425,-54.3047265009052
16845172586.2931,-54.1958901035119
16850175087.5438,-54.07832226875
16855177588.7944,-53.8490313522549
16860180090.045,-53.6087525163991
16865182591.2956,-53.3644540466254
16870185092.5463,-52.9899196056901
16875187593.7969,-52.8150238566241
16880190095.0475,-52.5611924253766
16885192596.2981,-52.4592181524984
16890195097.5488,-52.4868720719328
16895197598.7994,-52.6489071930096
16900200100.05,-52.7889749744791
16905202601.3007,-52.9781031060368
16910205102.5513,-53.2820673526289
16915207603.8019,-53.4744357982582
16920210105.0525,-53.6407377210416
16925212606.3032,-53.8345828585343
16930215107.5538,-53.8150016123776
16935217608.8044,-53.8191919001924
16940220110.055,-53.7904397074998
16945222611.3057,-53.6402565241545
16950225112.5563,-53.526036306887
16955227613.8069,-53.4427159105883
16960230115.0575,-53.1718627721228
16965232616.3082,-53.0251602840765
16970235117.5588,-52.880943184282
16975237618.8094,-52.8429538600223
16980240120.06,-52.8327767365398
16985242621.3107,-52.9918302379883
16990245122.5613,-53.1563700349675
16995247623.8119,-53.4222399609217
17000250125.0625,-53.7519751119699
17005252626.3132,-54.0103139398919
17010255127.5638,-54.2032665497051
17015257628.8144,-54.340743412277
17020260130.065,-54.4465548713108
17025262631.3157,-54.4399288935203
17030265132.5663,-54.3455101050141
17035267633.8169,-54.2561934096271
17040270135.0675,-54.1792547584177
17045272636.3182,-53.9681192686426
17050275137.5688,-53.6773383239701
17055277638.8194,-53.4526777759947
17060280140.07,-53.2753361853677
17065282641.3207,-53.092015018225
17070285142.5713,-53.1898089073048
17075287643.8219,-53.2807697302834
17080290145.0725,-53.4667860347555
17085292646.3232,-53.6940929016487
17090295147.5738,-53.9931740030428
17095297648.8244,-54.1793121654392
17100300150.075,-53.8966036952929
17105302651.3257,-54.0603323728464
17110305152.5763,-54.0730506680838
17115307653.8269,-54.0814994279224
17120310155.0775,-54.058588199772
17125312656.3282,-53.9626187901511
17130315157.5788,-53.9006516225447
17135317658.8294,-53.6606965866777
17140320160.08,-53.5346975667697
17145322661.3307,-53.3117252663535
17150325162.5813,-53.2049825740368
17155327663.8319,-53.1535526695536
17160330165.0825,-53.1618908161739
17165332666.3332,-53.3113964674033
17170335167.5838,-53.530864587696
17175337668.8344,-53.8761114654976
17180340170.085,-54.1567537710161
17185342671.3357,-54.5432037833744
17190345172.5863,-54.8193483204999
17195347673.8369,-55.0314480970316
17200350175.0875,-55.2203524765857
17205352676.3382,-55.3376066618192
17210355177.5888,-55.3916996396271
17215357678.8394,-55.3079974896569
17220360180.09,-55.2618592313436
17225362681.3407,-55.0509815964504
17230365182.5913,-54.9823598135166
17235367683.8419,-54.8675272018477
17240370185.0925,-54.7265971862746
17245372686.3432,-54.7587302551427
17250375187.5938,-54.8588841053025
17255377688.8444,-55.0475668130597
17260380190.095,-55.1780001941705
17265382691.3457,-55.517658919823
17270385192.5963,-55.8154730231324
17275387693.8469,-56.1398696280019
17280390195.0975,-56.4069683200553
17285392696.3482,-56.609190261048
17290395197.5988,-56.6569863763565
17295397698.8494,-56.7592489276962
17300400200.1001,-56.7614323454898
17305402701.3507,-56.7532395296325
17310405202.6013,-56.6881896722286
17315407703.8519,-56.5664166314536
17320410205.1026,-56.4824975292102
17325412706.3532,-56.3946112199436
17330415207.6038,-56.2868491282038
17335417708.8544,-56.2183662843104
17340420210.1051,-56.2294589307005
17345422711.3557,-56.2879639021121
17350425212.6063,-56.4020592025985
17355427713.8569,-56.4578234644259
17360430215.1076,-56.6058896862194
17365432716.3582,-56.6785396307123
17370435217.6088,-56.7776404282655
17375437718.8594,-56.885307471534
17380440220.1101,-56.9010134044819
17385442721.3607,-56.9295959114436
17390445222.6113,-56.9239444553261
17395447723.8619,-56.8891493448347
17400450225.1126,-56.7101651532458
17405452726.3632,-56.6563870735574
17410455227.6138,-56.5089331961527
17415457728.8644,-56.3990553864911
17420460230.1151,-56.2889552447412
17425462731.3657,-56.240243721614
17430465232.6163,-56.2420637830863
17435467733.8669,-56.3423577244738
17440470235.1176,-56.3366267072009
17445472736.3682,-56.4621570203733
17450475237.6188,-56.5182715819737
17455477738.8694,-56.5830550924696
17460480240.1201,-56.685916989494
17465482741.3707,-56.7354385102017
17470485242.6213,-56.6890224253802
17475487743.8719,-56.6890547989935
17480490245.1226,-56.6085103184412
17485492746.3732,-56.4973525376033
17490495247.6238,-56.3565643539002
17495497748.8744,-56.2464943457659
17500500250.1251,-56.0942488705147
17505502751.3757,-55.89766827722
17510505252.6263,-55.8424320072045
17515507753.8769,-55.6762188116462
17520510255.1276,-55.6800172690978
17525512756.3782,-55.6352247663152
17530515257.6288,-55.6456775693956
17535517758.8794,-55.6849857680408
17540520260.1301,-55.7057549426059
17545522761.3807,-55.7118105560316
17550525262.6313,-55.6707670689375
17555527763.8819,-55.6672152193183
17560530265.1326,-55.560096536634
17565532766.3832,-55.5072112964067
17570535267.6338,-55.4455132915967
17575537768.8844,-55.3256576675341
17580540270.1351,-55.2796721220809
17585542771.3857,-55.2510572638218
17590545272.6363,-55.1373591629265
17595547773.8869,-55.0592667611928
17600550275.1376,-54.9798099097846
17605552776.3882,-55.0104602633112
17610555277.6388,-54.8462327367064
17615557778.8894,-54.8470443568548
17620560280.1401,-54.9043504685016
17625562781.3907,-54.8924543210908
17630565282.6413,-54.9459299877733
17635567783.8919,-54.9725001186214
17640570285.1426,-55.050085323806
17645572786.3932,-55.0933449339408
17650575287.6438,-55.1020400687941
17655577788.8944,-55.2062828358423
17660580290.1451,-55.1787557901278
17665582791.3957,-55.2242621356836
17670585292.6463,-55.2618987967577
17675587793.897,-55.2260525466892
17680590295.1476,-55.1823301221657
17685592796.3982,-55.1284510058073
17690595297.6488,-55.1414053870652
17695597798.8994,-55.1612225199754
17700600300.1501,-55.1137805055699
17705602801.4007,-55.1333266035327
17710605302.6513,-55.2116994000626
17715607803.902,-55.2435269226769
17720610305.1526,-55.4055713037364
17725612806.4032,-55.4374852016572
17730615307.6538,-55.5325704876403
17735617808.9045,-55.7138858972843
17740620310.1551,-55.7548863087521
17745622811.4057,-55.9299426665091
17750625312.6563,-55.9487031005852
17755627813.907,-56.1183852470292
17760630315.1576,-56.1720329399377
17765632816.4082,-56.2387538751431
17770635317.6588,-56.2329182214092
17775637818.9095,-56.4128363128651
17780640320.1601,-56.4535400346635
17785642821.4107,-56.4723329845372
17790645322.6613,-56.5415148858034
17795647823.912,-56.5086851521467
17800650325.1626,-56.6103968948737
17805652826.4132,-56.6600436583476
17810655327.6638,-56.74060708192
17815657828.9145,-56.8599936884874
17820660330.1651,-57.0145504591747
17825662831.4157,-57.2084572475503
17830665332.6663,-57.2773536315963
17835667833.917,-57.5681906969415
17840670335.1676,-57.7660805079038
17845672836.4182,-57.9830783658528
17850675337.6688,-58.1390073529804
17855677838.9195,-58.2526349806231
17860680340.1701,-58.427508999907
17865682841.4207,-58.5108530459158
17870685342.6713,-58.5370643547614
17875687843.922,-58.5765826284218
17880690345.1726,-58.6037626495352
17885692846.4232,-58.5491356252575
17890695347.6738,-58.6222952633773
17895697848.9245,-58.5204274366979
17900700350.1751,-58.5733262523695
17905702851.4257,-58.6844550793634
17910705352.6763,-58.7498661363714
17915707853.927,-58.8139432151054
17920710355.1776,-58.9170114949567
17925712856.4282,-59.1200190261915
17930715357.6788,-59.1942234756179
17935717858.9295,-59.2903651354914
17940720360.1801,-59.4574700318001
17945722861.4307,-59.4951837825357
17950725362.6813,-59.6120605561481
17955727863.932,-59.6721893918492
17960730365.1826,-59.6806575562937
17965732866.4332,-59.7491805976986
17970735367.6838,-59.6855799447808
17975737868.9345,-59.7388110170898
17980740370.1851,-59.6761482907459
17985742871.4357,-59.6958635860257
17990745372.6863,-59.6186469285731
17995747873.937,-59.6393028132349
18000750375.1876,-59.5954450995317
18005752876.4382,-59.5130352256739
18010755377.6888,-59.5217513985052
18015757878.9395,-59.5542093641868
18020760380.1901,-59.5067518780879
18025762881.4407,-59.5643022026419
18030765382.6913,-59.5025453425873
18035767883.942,-59.4990328792363
18040770385.1926,-59.5953877545699
18045772886.4432,-59.558622169903
18050775387.6938,-59.5601571258151
18055777888.9445,-59.4929399423118
18060780390.1951,-59.3818357152023
18065782891.4457,-59.3398725401818
18070785392.6964,-59.2876294800393
18075787893.947,-59.102110536821
18080790395.1976,-58.9798681120295
18085792896.4482,-58.7513887446129
18090795397.6988,-58.6634184006427
18095797898.9495,-58.4621377426142
18100800400.2001,-58.3529775412245
18105802901.4507,-58.2428337397273
18110805402.7014,-58.1099954052021
18115807903.952,-58.0575552866423
18120810405.2026,-57.9526323504507
18125812906.4532,-57.9160037449658
18130815407.7039,-57.7899772389787
18135817908.9545,-57.7661333991596
18140820410.2051,-57.6689051841702
18145822911.4557,-57.5854531760044
18150825412.7064,-57.4106951737709
18155827913.957,-57.291757377184
18160830415.2076,-57.1479634770044
18165832916.4582,-57.0524211473517
18170835417.7089,-56.9074399694757
18175837918.9595,-56.8854314033548
18180840420.2101,-56.8203033547853
18185842921.4607,-56.7252098201341
18190845422.7114,-56.5758877983337
18195847923.962,-56.4663119435889
18200850425.2126,-56.3668688359706
18205852926.4632,-56.3865552435617
18210855427.7139,-56.3701407180645
18215857928.9645,-56.3149992065824
18220860430.2151,-56.3268954681902
18225862931.4657,-56.3580842924186
18230865432.7164,-56.3264812295992
18235867933.967,-56.2983905416923
18240870435.2176,-56.2669360773835
18245872936.4682,-56.2353179303435
18250875437.7189,-56.1552378757076
18255877938.9695,-56.0907733251063
18260880440.2201,-56.0275495730481
18265882941.4707,-55.9626211072618
18270885442.7214,-55.9396774387065
18275887943.972,-55.9280526921009
18280890445.2226,-55.9484318799513
18285892946.4732,-55.9918842710327
18290895447.7239,-56.0515723774197
18295897948.9745,-56.1874324253772
18300900450.2251,-56.3665499034648
18305902951.4757,-56.4764201156796
18310905452.7264,-56.6268382133404
18315907953.977,-56.7517427594977
18320910455.2276,-56.953814185801
18325912956.4782,-57.0388784576995
18330915457.7289,-57.0667452997353
18335917958.9795,-57.0495078287104
18340920460.2301,-57.03450485221
18345922961.4807,-57.0035352920051
18350925462.7314,-57.0779718390609
18355927963.982,-57.0829798760979
18360930465.2326,-57.20638206572
18365932966.4832,-57.3609290268646
18370935467.7339,-57.5021745896443
18375937968.9845,-57.6496472342952
18380940470.2351,-57.8825546895319
18385942971.4857,-58.0703476206902
18390945472.7364,-58.2158703805326
18395947973.987,-58.4112372561502
18400950475.2376,-58.5354729915386
18405952976.4882,-58.7115627779325
18410955477.7389,-58.8290225233608
18415957978.9895,-58.9278449833458
18420960480.2401,-58.9715347286331
18425962981.4907,-59.012309778504
18430965482.7414,-59.0225596606981
18435967983.992,-59.1107732388556
18440970485.2426,-59.1421871281758
18445972986.4932,-59.1724634683277
18450975487.7439,-59.2218108236443
18455977988.9945,-59.1549260647327
18460980490.2451,-59.2359961966346
18465982991.4957,-59.28434437132
18470985492.7464,-59.326786074647
18475987993.997,-59.4388161715435
18480990495.2476,-59.6123602138432
18485992996.4982,-59.6676948605131
18490995497.7489,-59.7547749021546
18495997998.9995,-59.8848907212358
18501000500.2501,-59.9677654271843
18506003001.5008,-60.1390738321476
18511005502.7514,-60.2434464015511
18516008004.002,-60.2675844028033
18521010505.2526,-60.291473104783
18526013006.5033,-60.2574867441653
18531015507.7539,-60.3310725935727
18536018009.0045,-60.2419668462461
18541020510.2551,-60.2595845474606
18546023011.5058,-60.2007712377112
18551025512.7564,-60.2518327631431
18556028014.007,-60.1487826441691
18561030515.2576,-60.1710696585831
18566033016.5083,-60.1428168650909
18571035517.7589,-60.1756603551083
18576038019.0095,-60.2153976110908
18581040520.2601,-60.2708731189163
18586043021.5108,-60.2862910312582
18591045522.7614,-60.2938707738384
18596048024.012,-60.3049692651131
18601050525.2626,-60.3591557749504
18606053026.5133,-60.3759516708251
18611055527.7639,-60.4009656265374
18616058029.0145,-60.386511616841
18621060530.2651,-60.3620845436854
18626063031.5158,-60.3211781594018
18631065532.7664,-60.251633136937
18636068034.017,-60.18896986166
18641070535.2676,-60.1857232473892
18646073036.5183,-60.0879480030951
18651075537.7689,-60.0189395132628
18656078039.0195,-59.9943517294721
18661080540.2701,-59.983587619528
18666083041.5208,-59.9044076758343
18671085542.7714,-59.9042827268409
18676088044.022,-59.8501148633078
18681090545.2726,-59.9375379967918
18686093046.5233,-59.8723785547803
18691095547.7739,-59.8528380473033
18696098049.0245,-59.822949195448
18701100550.2751,-59.8195034284376
18706103051.5258,-59.6965453780678
18711105552.7764,-59.6200814567114
18716108054.027,-59.5016526895237
18721110555.2776,-59.3950277778875
18726113056.5283,-59.285483482648
18731115557.7789,-59.1972529022929
18736118059.0295,-59.1015336935531
18741120560.2801,-59.0182388732835
18746123061.5308,-58.9667200658356
18751125562.7814,-58.9794896671202
18756128064.032,-58.9425931841375
18761130565.2826,-58.9659109619041
18766133066.5333,-58.9163489814626
18771135567.7839,-58.8580149794243
18776138069.0345,-58.8029755843852
18781140570.2851,-58.8460314310719
18786143071.5358,-58.7563937252466
18791145572.7864,-58.6426818031871
18796148074.037,-58.5714599623045
18801150575.2876,-58.465775462727
18806153076.5383,-58.4197552799158
18811155577.7889,-58.4026899481503
18816158079.0395,-58.32595681489
18821160580.2901,-58.2626536362068
18826163081.5408,-58.1972888230331
18831165582.7914,-58.2771896726966
18836168084.042,-58.2595991224327
18841170585.2926,-58.2828648789534
18846173086.5433,-58.2233426554317
18851175587.7939,-58.2443186642589
18856178089.0445,-58.2007073785313
18861180590.2951,-58.2380321638994
18866183091.5458,-58.2170409589678
18871185592.7964,-58.2639226655612
18876188094.047,-58.2087749025272
18881190595.2976,-58.2122732807174
18886193096.5483,-58.200834349358
18891195597.7989,-58.2788058896641
18896198099.0495,-58.300962489896
18901200600.3001,-58.2079197293848
18906203101.5508,-58.2235111575528
18911205602.8014,-58.207990948581
18916208104.052,-58.2109261025775
18921210605.3027,-58.0997840804013
18926213106.5533,-58.159399469745
18931215607.8039,-58.2319415358264
18936218109.0545,-58.3127808927249
18941220610.3052,-58.4477765898829
18946223111.5558,-58.591736116181
18951225612.8064,-58.6809604697297
18956228114.057,-58.7188981589281
18961230615.3077,-58.8862519749054
18966233116.5583,-59.0040271422216
18971235617.8089,-59.0809218293244
18976238119.0595,-59.0705616823944
18981240620.3102,-59.1568126837263
18986243121.5608,-59.1423768641655
18991245622.8114,-59.1913792419004
18996248124.062,-59.1293810932632
19001250625.3127,-59.1452130445669
19006253126.5633,-59.1616912915833
19011255627.8139,-59.240614237231
19016258129.0645,-59.3547628629784
19021260630.3152,-59.3633576027804
19026263131.5658,-59.4919425089478
19031265632.8164,-59.5477244990474
19036268134.067,-59.6074908848427
19041270635.3177,-59.7497629996546
19046273136.5683,-59.8482365559559
19051275637.8189,-59.9259260891355
19056278139.0695,-59.9668432231731
19061280640.3202,-60.0445093395216
19066283141.5708,-60.1077744468213
19071285642.8214,-60.1849944898175
19076288144.072,-60.1993030771255
19081290645.3227,-60.3085589941925
19086293146.5733,-60.3134098047875
19091295647.8239,-60.321669966025
19096298149.0745,-60.3417672328301
19101300650.3252,-60.3187687930466
19106303151.5758,-60.313880157216
19111305652.8264,-60.2335508174064
19116308154.077,-60.2515674528883
19121310655.3277,-60.2623062086021
19126313156.5783,-60.2112028423284
19131315657.8289,-60.1842645720939
19136318159.0795,-60.1528697852689
19141320660.3302,-60.1121892645208
19146323161.5808,-60.1805626118606
19151325662.8314,-60.2143537274863
19156328164.082,-60.2118404855648
19161330665.3327,-60.1680539492197
19166333166.5833,-60.1541137425742
19171335667.8339,-60.2243025187515
