Trace
Swept SA
A.17.55,N9010A
526 B25 DP2 EP3 FS1 MPB RTL ,01
Segment,0
Number of Points,2000
Sweep Time,0.050641333333
Start Frequency,16500000000
Stop Frequency,26500000000
Average Count,100
Average Type,Power(RMS)
RBW,3000000
RBW Filter,Gaussian
RBW Filter BW,3dB
VBW,300000
Sweep Type,Swept
X Axis Scale,Lin
PreAmp State,Off
PreAmp Band,Low
Trigger Source,Free
Trigger Level,1.2
Trigger Slope,Positive
Trigger Delay,0
Phase Noise Optimization,Fast
Swept If Gain,Low
FFT If Gain,Autorange
RF Coupling,AC
FFT Width,411900
Ext Ref,10000000
Input,RF
RF Calibrator,Off
Attenuation,10
Ref Level Offset,0
External Gain,0
Trace Type,Average
Detector,Average
Trace Math,Off
Trace Math Oper1,Trace5
Trace Math Oper2,Trace6
Trace Math Offset,0
Normalize,Off
Trace Name,Trace1
X Axis Units,Hz
Y Axis Units,dBm
DATA
16500000000,-52.6437553569934
16505002501.2506,-52.4267634357237
16510005002.5013,-52.1764058010637
16515007503.7519,-51.8383146242591
16520010005.0025,-51.6559677921521
16525012506.2531,-51.6171834407238
16530015007.5038,-51.6465079789122
16535017508.7544,-51.8127218219198
16540020010.005,-52.1769754495646
16545022511.2556,-52.5416550000162
16550025012.5063,-52.9683460374467
16555027513.7569,-53.2510798266444
16560030015.0075,-53.587338316696
16565032516.2581,-53.8291421668888
16570035017.5088,-54.0050257667398
16575037518.7594,-53.9129979955804
16580040020.01,-53.8552106032148
16585042521.2606,-53.661091389209
16590045022.5113,-53.3354876702914
16595047523.7619,-53.1542967791714
16600050025.0125,-52.9176818565393
16605052526.2631,-52.6294879325766
16610055027.5138,-52.4948538740686
16615057528.7644,-52.4786550323045
16620060030.015,-52.6345882107839
16625062531.2656,-52.845192029638
16630065032.5163,-53.0487419513514
16635067533.7669,-53.3518920741852
16640070035.0175,-53.6269834832604
16645072536.2681,-53.8589335787029
16650075037.5188,-54.1020534735253
16655077538.7694,-54.2304527475752
16660080040.02,-54.2320850487856
16665082541.2706,-54.2775745995054
16670085042.5213,-54.1378829484911
16675087543.7719,-53.924064564615
16680090045.0225,-53.8055813305607
16685092546.2731,-53.4924545506544
16690095047.5238,-53.2701603601125
16695097548.7744,-52.9728860271696
16700100050.025,-52.7849723889409
16705102551.2756,-52.6570670720664
16710105052.5263,-52.5865706077038
16715107553.7769,-52.6715479893633
16720110055.0275,-52.8607690815061
16725112556.2781,-53.1817470144249
16730115057.5288,-53.4669990030728
16735117558.7794,-53.7283884337602
16740120060.03,-53.9761258140462
16745122561.2806,-54.2119307027649
16750125062.5313,-54.2820084347406
16755127563.7819,-54.2883778554387
16760130065.0325,-54.1884666594343
16765132566.2831,-53.9875296456449
16770135067.5338,-53.6380162973856
16775137568.7844,-53.3119304129399
16780140070.035,-52.97511147386
16785142571.2856,-52.5930212938187
16790145072.5363,-52.3802842150952
16795147573.7869,-52.2443241675593
16800150075.0375,-52.3084579809706
16805152576.2881,-52.4640196796334
16810155077.5388,-52.7437832406828
16815157578.7894,-53.0673804827989
16820160080.04,-53.3352037717381
16825162581.2906,-53.5911080360487
16830165082.5413,-53.7358260100155
16835167583.7919,-53.7494899027217
16840170085.0425,-53.7976136768286
16845172586.2931,-53.6549125293372
16850175087.5438,-53.5220942324205
16855177588.7944,-53.3933400377854
16860180090.045,-53.0084092388886
16865182591.2956,-52.7490745015729
16870185092.5463,-52.4745745530077
16875187593.7969,-52.1674883600176
16880190095.0475,-52.0107162978158
16885192596.2981,-51.9160015847476
16890195097.5488,-51.8847791962066
16895197598.7994,-52.0426828775138
16900200100.05,-52.1885344209809
16905202601.3007,-52.4181273445718
16910205102.5513,-52.5829265478095
16915207603.8019,-52.7560165891012
16920210105.0525,-52.8658430401241
16925212606.3032,-53.0513481991133
16930215107.5538,-53.0771628454659
16935217608.8044,-53.0214892065755
16940220110.055,-52.8942318563069
16945222611.3057,-52.8241389120069
16950225112.5563,-52.7265359612088
16955227613.8069,-52.5389513243098
16960230115.0575,-52.3142785984283
16965232616.3082,-52.2101820737061
16970235117.5588,-52.0664515715505
16975237618.8094,-51.9796577934887
16980240120.06,-52.0894939450351
16985242621.3107,-52.1982180870261
16990245122.5613,-52.510910494756
16995247623.8119,-52.7536418095097
17000250125.0625,-53.1337538204093
17005252626.3132,-53.370726593614
17010255127.5638,-53.5701499966616
17015257628.8144,-53.7230077448643
17020260130.065,-53.8026064062308
17025262631.3157,-53.8089500948941
17030265132.5663,-53.7583671284677
17035267633.8169,-53.5989496496785
17040270135.0675,-53.4038188494761
17045272636.3182,-53.2227392897043
17050275137.5688,-52.9782914632075
17055277638.8194,-52.7602732887948
17060280140.07,-52.6106338452999
17065282641.3207,-52.4743571267235
17070285142.5713,-52.5183079727027
17075287643.8219,-52.6403718199067
17080290145.0725,-52.8398731807379
17085292646.3232,-53.1480479019744
17090295147.5738,-53.3893301306016
17095297648.8244,-53.6335598239092
17100300150.075,-53.3167752650049
17105302651.3257,-53.5088614057544
17110305152.5763,-53.5579160426819
17115307653.8269,-53.5964573273279
17120310155.0775,-53.4634276416931
17125312656.3282,-53.3734749334727
17130315157.5788,-53.2069682501943
17135317658.8294,-52.9995553041203
17140320160.08,-52.8174320287701
17145322661.3307,-52.4875166271023
17150325162.5813,-52.3669280322433
17155327663.8319,-52.2055913186762
17160330165.0825,-52.1634179811932
17165332666.3332,-52.2621191497031
17170335167.5838,-52.4627441632682
17175337668.8344,-52.7031908861015
17180340170.085,-52.9594903865119
17185342671.3357,-53.3062333952357
17190345172.5863,-53.5299113330277
17195347673.8369,-53.8449951653963
17200350175.0875,-54.0162642065415
17205352676.3382,-54.0741928357084
17210355177.5888,-54.1732135863773
17215357678.8394,-54.2067191656255
17220360180.09,-54.0752237616903
17225362681.3407,-53.8708091977952
17230365182.5913,-53.8249057578414
17235367683.8419,-53.6716214467431
17240370185.0925,-53.5856602700703
17245372686.3432,-53.5883914603693
17250375187.5938,-53.6843833591306
17255377688.8444,-53.8539633198196
17260380190.095,-54.1108083144998
17265382691.3457,-54.3672377327932
17270385192.5963,-54.7183524941578
17275387693.8469,-55.0221161406318
17280390195.0975,-55.341873291833
17285392696.3482,-55.6079677845469
17290395197.5988,-55.7716082354926
17295397698.8494,-55.8906590518624
17300400200.1001,-55.9848372640026
17305402701.3507,-56.0208535178058
17310405202.6013,-55.9579186714212
17315407703.8519,-55.9355569937451
17320410205.1026,-55.8025941312724
17325412706.3532,-55.7057369636814
17330415207.6038,-55.7433069219326
17335417708.8544,-55.7163057556368
17340420210.1051,-55.6992598654782
17345422711.3557,-55.8056283291587
17350425212.6063,-55.9313579192696
17355427713.8569,-56.0412969305693
17360430215.1076,-56.2360563658002
17365432716.3582,-56.3523696241549
17370435217.6088,-56.4789197824508
17375437718.8594,-56.4612283544574
17380440220.1101,-56.4497286008644
17385442721.3607,-56.4812298645083
17390445222.6113,-56.3663931545531
17395447723.8619,-56.2774740994321
17400450225.1126,-56.1562167319137
17405452726.3632,-55.9218353876349
17410455227.6138,-55.8059570133482
17415457728.8644,-55.5203024323629
17420460230.1151,-55.4291030442802
17425462731.3657,-55.3848469925649
17430465232.6163,-55.332221212245
17435467733.8669,-55.3665553226933
17440470235.1176,-55.44162721096
17445472736.3682,-55.5774769851471
17450475237.6188,-55.6268610997566
17455477738.8694,-55.7573708641927
17460480240.1201,-55.8236497175331
17465482741.3707,-55.8729990146033
17470485242.6213,-55.8328115974041
17475487743.8719,-55.8296106515835
17480490245.1226,-55.7754628138054
17485492746.3732,-55.6511553595616
17490495247.6238,-55.4919612712813
17495497748.8744,-55.3634144826139
17500500250.1251,-55.1966769133339
17505502751.3757,-55.0240400161172
17510505252.6263,-54.9115606813223
17515507753.8769,-54.7264252169422
17520510255.1276,-54.7267349258421
17525512756.3782,-54.7640491920148
17530515257.6288,-54.7879051901559
17535517758.8794,-54.834273454712
17540520260.1301,-54.8898281186823
17545522761.3807,-54.9040788561504
17550525262.6313,-54.9401378015597
17555527763.8819,-54.8860394083084
17560530265.1326,-54.8511961184951
17565532766.3832,-54.7467861634302
17570535267.6338,-54.6550708537177
17575537768.8844,-54.5039943843508
17580540270.1351,-54.3826941563685
17585542771.3857,-54.2518026963055
17590545272.6363,-54.2710593531214
17595547773.8869,-54.0840126471189
17600550275.1376,-53.9958425576206
17605552776.3882,-53.9890873276953
17610555277.6388,-53.9258897524178
17615557778.8894,-53.8772586670037
17620560280.1401,-53.9473820843855
17625562781.3907,-53.9427847663519
17630565282.6413,-54.0405659332907
17635567783.8919,-54.1281490486684
17640570285.1426,-54.2350674478399
17645572786.3932,-54.3419295186618
17650575287.6438,-54.3828513730572
17655577788.8944,-54.4814491597945
17660580290.1451,-54.5996890644082
17665582791.3957,-54.6144490147063
17670585292.6463,-54.6207211790912
17675587793.897,-54.6949339764096
17680590295.1476,-54.6952325297104
17685592796.3982,-54.5875604653512
17690595297.6488,-54.6218322295245
17695597798.8994,-54.5270373621417
17700600300.1501,-54.555285476396
17705602801.4007,-54.6445119538374
17710605302.6513,-54.6552940888508
17715607803.902,-54.6851973233515
17720610305.1526,-54.7759116820778
17725612806.4032,-54.8691047950856
17730615307.6538,-54.919771835943
17735617808.9045,-55.0449859274409
17740620310.1551,-55.1885939133324
17745622811.4057,-55.232711325453
17750625312.6563,-55.3403019784081
17755627813.907,-55.5272459198429
17760630315.1576,-55.5093471714391
17765632816.4082,-55.6890280230058
17770635317.6588,-55.7347522142235
17775637818.9095,-55.7879944725398
17780640320.1601,-55.8940981604048
17785642821.4107,-55.9584080707961
17790645322.6613,-55.9861451225752
17795647823.912,-55.9918349446148
17800650325.1626,-55.9905686663658
17805652826.4132,-55.9840561452565
17810655327.6638,-56.0874198661841
17815657828.9145,-56.1804593202445
17820660330.1651,-56.2684885811905
17825662831.4157,-56.4505714397772
17830665332.6663,-56.6295883638381
17835667833.917,-56.8356910330638
17840670335.1676,-57.0074922564227
17845672836.4182,-57.2479870761883
17850675337.6688,-57.4313633285387
17855677838.9195,-57.538032974229
17860680340.1701,-57.6712284769005
17865682841.4207,-57.7896590821517
17870685342.6713,-57.774090380774
17875687843.922,-57.8101129015837
17880690345.1726,-57.8165755200594
17885692846.4232,-57.823119863785
17890695347.6738,-57.7436829751811
17895697848.9245,-57.7224364072694
17900700350.1751,-57.7406190964887
17905702851.4257,-57.8874221174232
17910705352.6763,-57.9335564513862
17915707853.927,-58.0019051552858
17920710355.1776,-58.1412597780626
17925712856.4282,-58.2455325987455
17930715357.6788,-58.4367037695453
17935717858.9295,-58.4644897288045
17940720360.1801,-58.5869189806016
17945722861.4307,-58.6807142075594
17950725362.6813,-58.7864779511493
17955727863.932,-58.8214695104073
17960730365.1826,-58.8713608370905
17965732866.4332,-58.8455052167548
17970735367.6838,-58.8136153316649
17975737868.9345,-58.9107225469523
17980740370.1851,-58.9227125237713
17985742871.4357,-58.9189736730648
17990745372.6863,-58.8902845386265
17995747873.937,-58.9583356294676
18000750375.1876,-58.8786654875138
18005752876.4382,-58.9791308594794
18010755377.6888,-58.9506355814069
18015757878.9395,-59.0255540857476
18020760380.1901,-59.033075455382
18025762881.4407,-58.9827919212497
18030765382.6913,-58.9755901046021
18035767883.942,-59.0070090120025
18040770385.1926,-59.0678288679416
18045772886.4432,-59.024627511328
18050775387.6938,-59.0103316003925
18055777888.9445,-58.9312721659218
18060780390.1951,-58.854148861637
18065782891.4457,-58.7300152030889
18070785392.6964,-58.6011180288909
18075787893.947,-58.4798827924432
18080790395.1976,-58.3688533513122
18085792896.4482,-58.1085212129417
18090795397.6988,-57.9704216323897
18095797898.9495,-57.8491697911672
18100800400.2001,-57.7284114337155
18105802901.4507,-57.644305822197
18110805402.7014,-57.5483033396283
18115807903.952,-57.4456560414269
18120810405.2026,-57.3187768257228
18125812906.4532,-57.3576886211724
18130815407.7039,-57.2483406020948
18135817908.9545,-57.1061234616318
18140820410.2051,-57.0235748605958
18145822911.4557,-56.8139631622103
18150825412.7064,-56.6593046024491
18155827913.957,-56.4990579861857
18160830415.2076,-56.2709601176338
18165832916.4582,-56.1379298178075
18170835417.7089,-55.9664689537297
18175837918.9595,-55.626413056168
18180840420.2101,-55.5595302880204
18185842921.4607,-55.4203196273381
18190845422.7114,-55.3653761097983
18195847923.962,-55.2654942038582
18200850425.2126,-55.2194839076246
18205852926.4632,-55.220246060817
18210855427.7139,-55.2262995174782
18215857928.9645,-55.196596181819
18220860430.2151,-55.1660041442458
18225862931.4657,-55.1323463586826
18230865432.7164,-55.1186727393718
18235867933.967,-55.136264237679
18240870435.2176,-55.1052166372882
18245872936.4682,-55.0485229185523
18250875437.7189,-54.9438038539106
18255877938.9695,-54.908081305231
18260880440.2201,-54.7599524542128
18265882941.4707,-54.732206379284
18270885442.7214,-54.7119856096746
18275887943.972,-54.7127746950134
18280890445.2226,-54.7800089582264
18285892946.4732,-54.8698422303365
18290895447.7239,-54.9555878354174
18295897948.9745,-55.1255122441472
18300900450.2251,-55.3451102922481
18305902951.4757,-55.5807631044283
18310905452.7264,-55.672501494611
18315907953.977,-55.9077390073736
18320910455.2276,-56.0110829729217
18325912956.4782,-56.0687203530656
18330915457.7289,-56.1201275196773
18335917958.9795,-56.1675403542203
18340920460.2301,-56.2510539887127
18345922961.4807,-56.2848142373231
18350925462.7314,-56.2323862561275
18355927963.982,-56.2995986462425
18360930465.2326,-56.3826271593306
18365932966.4832,-56.5183208283744
18370935467.7339,-56.6403890840926
18375937968.9845,-56.7806472986018
18380940470.2351,-57.0056204845909
18385942971.4857,-57.2406970094211
18390945472.7364,-57.3797513074816
18395947973.987,-57.6055511024002
18400950475.2376,-57.7354725941295
18405952976.4882,-57.9719122438445
18410955477.7389,-58.011854427035
18415957978.9895,-58.1377943644806
18420960480.2401,-58.1795957032858
18425962981.4907,-58.2183274551478
18430965482.7414,-58.3043640779519
18435967983.992,-58.3119960145418
18440970485.2426,-58.3674729009589
18445972986.4932,-58.395102322789
18450975487.7439,-58.4318955399762
18455977988.9945,-58.4437314701679
18460980490.2451,-58.5423518482209
18465982991.4957,-58.4783594970219
18470985492.7464,-58.6199424818354
18475987993.997,-58.6906791861645
18480990495.2476,-58.8298058379909
18485992996.4982,-58.866345491022
18490995497.7489,-58.920124688814
18495997998.9995,-59.0962255307423
18501000500.2501,-59.2506913186628
18506003001.5008,-59.3069182860901
18511005502.7514,-59.3703774249863
18516008004.002,-59.519625491539
18521010505.2526,-59.4644322113439
18526013006.5033,-59.4558339573542
18531015507.7539,-59.4537735654419
18536018009.0045,-59.4410845240147
18541020510.2551,-59.4122863282138
18546023011.5058,-59.4308226452098
18551025512.7564,-59.4593576318981
18556028014.007,-59.441244100217
18561030515.2576,-59.3783017865977
18566033016.5083,-59.5386701136195
18571035517.7589,-59.5145156832604
18576038019.0095,-59.6238174580576
18581040520.2601,-59.6027264488379
18586043021.5108,-59.6893822024056
18591045522.7614,-59.7206589648864
18596048024.012,-59.7010977375193
18601050525.2626,-59.7055705110783
18606053026.5133,-59.7900500811543
18611055527.7639,-59.7092281282283
18616058029.0145,-59.7158837821648
18621060530.2651,-59.7101017738802
18626063031.5158,-59.5591406306515
18631065532.7664,-59.5333025311918
18636068034.017,-59.4210626410517
18641070535.2676,-59.4448829003246
18646073036.5183,-59.3499838612769
18651075537.7689,-59.2521540309936
18656078039.0195,-59.220306182803
18661080540.2701,-59.1995793127424
18666083041.5208,-59.1661793067834
18671085542.7714,-59.1946848314821
18676088044.022,-59.1672253565431
18681090545.2726,-59.1180971535661
18686093046.5233,-59.1184514627636
18691095547.7739,-59.0526782906089
18696098049.0245,-59.014245617829
18701100550.2751,-58.9405172368138
18706103051.5258,-58.8568110026606
18711105552.7764,-58.7818762251849
18716108054.027,-58.5616989122346
18721110555.2776,-58.4702042770983
18726113056.5283,-58.3072001309528
18731115557.7789,-58.1603828324695
18736118059.0295,-58.172734345687
18741120560.2801,-58.0643788431037
18746123061.5308,-58.0379246648192
18751125562.7814,-57.9808724523639
18756128064.032,-58.0584524776774
18761130565.2826,-58.0555820700426
18766133066.5333,-57.9872729444159
18771135567.7839,-57.970000326731
18776138069.0345,-57.9958714292394
18781140570.2851,-57.8717830879645
18786143071.5358,-57.8336538495806
18791145572.7864,-57.7963360826901
18796148074.037,-57.6264093129849
18801150575.2876,-57.5682363799061
18806153076.5383,-57.4275895211789
18811155577.7889,-57.3564282173967
18816158079.0395,-57.3331280962977
18821160580.2901,-57.2604379049422
18826163081.5408,-57.2475251033871
18831165582.7914,-57.149330109149
18836168084.042,-57.1689901007382
18841170585.2926,-57.1256538371517
18846173086.5433,-57.0943501957509
18851175587.7939,-57.1035263431084
18856178089.0445,-57.0585646676128
18861180590.2951,-57.0719783209344
18866183091.5458,-57.1074933802289
18871185592.7964,-57.1350535165603
18876188094.047,-57.0832684752116
18881190595.2976,-57.1335505948073
18886193096.5483,-57.1952753298409
18891195597.7989,-57.1816342780704
18896198099.0495,-57.1626947617805
18901200600.3001,-57.1716500894679
18906203101.5508,-57.1763933936987
18911205602.8014,-57.1955571833496
18916208104.052,-57.1507020251514
18921210605.3027,-57.1617528737123
18926213106.5533,-57.2734225446398
18931215607.8039,-57.2622073559273
18936218109.0545,-57.3435769772016
18941220610.3052,-57.4659375187764
18946223111.5558,-57.6212898990094
18951225612.8064,-57.6387411965727
18956228114.057,-57.8325412565839
18961230615.3077,-57.9439266686911
18966233116.5583,-57.9435698169571
18971235617.8089,-58.0489602513298
18976238119.0595,-58.072207785872
18981240620.3102,-58.0622394065137
18986243121.5608,-58.0793291855802
18991245622.8114,-58.0931956340379
18996248124.062,-58.1246365898442
19001250625.3127,-58.179269641774
19006253126.5633,-58.1986470169269
19011255627.8139,-58.2418957532288
19016258129.0645,-58.3344927367012
19021260630.3152,-58.4326605429298
19026263131.5658,-58.568261645983
19031265632.8164,-58.5854971704299
19036268134.067,-58.7468826437375
19041270635.3177,-58.8716538683792
19046273136.5683,-58.8703521882897
19051275637.8189,-58.9425549416595
19056278139.0695,-59.1529605588974
19061280640.3202,-59.212707907334
19066283141.5708,-59.264586601598
19071285642.8214,-59.3468538770003
19076288144.072,-59.4114599421908
19081290645.3227,-59.5271382651898
19086293146.5733,-59.5714654439242
19091295647.8239,-59.5828550206282
19096298149.0745,-59.585338037818
19101300650.3252,-59.6347010566248
19106303151.5758,-59.6196731355488
19111305652.8264,-59.667501012368
19116308154.077,-59.6542252532564
19121310655.3277,-59.6557111820717
19126313156.5783,-59.6597118080471
19131315657.8289,-59.6029029708827
19136318159.0795,-59.637358175521
19141320660.3302,-59.6434373115941
19146323161.5808,-59.5641771875912
19151325662.8314,-59.5960093474268
19156328164.082,-59.6009360607223
19161330665.3327,-59.5819841603709
19166333166.5833,-59.5736253493296
19171335667.8339,-59.5766567638439
