Trace
Swept SA
A.17.55,N9010A
526 B25 DP2 EP3 FS1 MPB RTL ,01
Segment,0
Number of Points,2000
Sweep Time,0.050641333333
Start Frequency,16500000000
Stop Frequency,26500000000
Average Count,100
Average Type,Power(RMS)
RBW,3000000
RBW Filter,Gaussian
RBW Filter BW,3dB
VBW,300000
Sweep Type,Swept
X Axis Scale,Lin
PreAmp State,Off
PreAmp Band,Low
Trigger Source,Free
Trigger Level,1.2
Trigger Slope,Positive
Trigger Delay,0
Phase Noise Optimization,Fast
Swept If Gain,Low
FFT If Gain,Autorange
RF Coupling,AC
FFT Width,411900
Ext Ref,10000000
Input,RF
RF Calibrator,Off
Attenuation,10
Ref Level Offset,0
External Gain,0
Trace Type,Average
Detector,Average
Trace Math,Off
Trace Math Oper1,Trace5
Trace Math Oper2,Trace6
Trace Math Offset,0
Normalize,Off
Trace Name,Trace1
X Axis Units,Hz
Y Axis Units,dBm
DATA
16500000000,-52.6377464134205
16505002501.2506,-52.3935972117983
16510005002.5013,-52.1461444723612
16515007503.7519,-51.8982010860134
16520010005.0025,-51.6711925623007
16525012506.2531,-51.5431801845903
16530015007.5038,-51.6555963377996
16535017508.7544,-51.8628579781775
16540020010.005,-52.1884663178714
16545022511.2556,-52.5239036992348
16550025012.5063,-52.9625839795999
16555027513.7569,-53.32226403148
16560030015.0075,-53.5521466190197
16565032516.2581,-53.8074553277661
16570035017.5088,-53.9487830300767
16575037518.7594,-53.9437127774616
16580040020.01,-53.9076084536927
16585042521.2606,-53.649666897146
16590045022.5113,-53.3826150417272
16595047523.7619,-53.1841676889348
16600050025.0125,-52.8995592433087
16605052526.2631,-52.6420592432976
16610055027.5138,-52.5365158408547
16615057528.7644,-52.4885800523816
16620060030.015,-52.6187461348088
16625062531.2656,-52.8161276609938
16630065032.5163,-53.0595977217213
16635067533.7669,-53.3328814064235
16640070035.0175,-53.6502736958552
16645072536.2681,-53.9007150206074
16650075037.5188,-54.0809011714397
16655077538.7694,-54.1921720648
16660080040.02,-54.2371823130218
16665082541.2706,-54.1663320609639
16670085042.5213,-54.1769665345225
16675087543.7719,-54.0031741326717
16680090045.0225,-53.7426078094729
16685092546.2731,-53.5177699019793
16690095047.5238,-53.2526613586068
16695097548.7744,-52.9837894782572
16700100050.025,-52.6796140191611
16705102551.2756,-52.5725963755489
16710105052.5263,-52.5829506048598
16715107553.7769,-52.6729376335168
16720110055.0275,-52.8413482641123
16725112556.2781,-53.1323109192363
16730115057.5288,-53.3851171683238
16735117558.7794,-53.7464440226226
16740120060.03,-54.002059675027
16745122561.2806,-54.1927516719388
16750125062.5313,-54.2533119854863
16755127563.7819,-54.2787444670993
16760130065.0325,-54.1262261896466
16765132566.2831,-53.9966589742474
16770135067.5338,-53.6912239265653
16775137568.7844,-53.2725404124682
16780140070.035,-52.9443392940424
16785142571.2856,-52.5446616609424
16790145072.5363,-52.3839522951727
16795147573.7869,-52.2646765008453
16800150075.0375,-52.3553278766077
16805152576.2881,-52.5086930488024
16810155077.5388,-52.7986510470564
16815157578.7894,-53.0268363356066
16820160080.04,-53.3527006241979
16825162581.2906,-53.5675981866627
16830165082.5413,-53.7166754695975
16835167583.7919,-53.8001670227253
16840170085.0425,-53.759978553027
16845172586.2931,-53.7340313716699
16850175087.5438,-53.480466985721
16855177588.7944,-53.2952897524729
16860180090.045,-53.0507777802679
16865182591.2956,-52.7616554502223
16870185092.5463,-52.5384888396716
16875187593.7969,-52.2393751556022
16880190095.0475,-52.026992261286
16885192596.2981,-51.9000387006658
16890195097.5488,-51.8964585316043
16895197598.7994,-52.0109678870579
16900200100.05,-52.2826124456473
16905202601.3007,-52.381429861971
16910205102.5513,-52.5527343470918
16915207603.8019,-52.760267725826
16920210105.0525,-52.9084909807975
16925212606.3032,-53.013700199068
16930215107.5538,-53.036364900262
16935217608.8044,-53.0393851938816
16940220110.055,-52.9746702174015
16945222611.3057,-52.8259681093811
16950225112.5563,-52.6748925067269
16955227613.8069,-52.5489427414319
16960230115.0575,-52.3401299484967
16965232616.3082,-52.2117090259454
16970235117.5588,-52.0455942043763
16975237618.8094,-51.9908018991821
16980240120.06,-52.0474431720927
16985242621.3107,-52.2199482818675
16990245122.5613,-52.4570071200537
16995247623.8119,-52.7373364938788
17000250125.0625,-53.103988081842
17005252626.3132,-53.3837778429034
17010255127.5638,-53.5303096043888
17015257628.8144,-53.6990183634364
17020260130.065,-53.8086065784879
17025262631.3157,-53.7899106707023
17030265132.5663,-53.7401319137165
17035267633.8169,-53.6486210585576
17040270135.0675,-53.4434421816759
17045272636.3182,-53.2687363689051
17050275137.5688,-52.9856056977314
17055277638.8194,-52.7427669347495
17060280140.07,-52.5914725873863
17065282641.3207,-52.4566417156354
17070285142.5713,-52.5053959050735
17075287643.8219,-52.6575635938138
17080290145.0725,-52.8885094758435
17085292646.3232,-53.079639234842
17090295147.5738,-53.4275857587798
17095297648.8244,-53.6808891143025
17100300150.075,-53.4240013530016
17105302651.3257,-53.4702059779535
17110305152.5763,-53.5526225127418
17115307653.8269,-53.566640579171
17120310155.0775,-53.5486318517641
17125312656.3282,-53.4450770892319
17130315157.5788,-53.2627407635445
17135317658.8294,-53.026223132319
17140320160.08,-52.7766078694469
17145322661.3307,-52.5645601489474
17150325162.5813,-52.4002536596274
17155327663.8319,-52.2450522164499
17160330165.0825,-52.1716256785077
17165332666.3332,-52.3050660216752
17170335167.5838,-52.4625399519033
17175337668.8344,-52.7814579604773
17180340170.085,-53.0251034195223
17185342671.3357,-53.297635033508
17190345172.5863,-53.5930446165375
17195347673.8369,-53.8659467246017
17200350175.0875,-54.0088364393322
17205352676.3382,-54.1420439608105
17210355177.5888,-54.2160102144992
17215357678.8394,-54.2043645683698
17220360180.09,-54.0567995003717
17225362681.3407,-53.9378483364687
17230365182.5913,-53.778100932262
17235367683.8419,-53.663145628785
17240370185.0925,-53.5376670957004
17245372686.3432,-53.6012354385111
17250375187.5938,-53.7246013265165
17255377688.8444,-53.8998208678229
17260380190.095,-54.0963971192856
17265382691.3457,-54.4262873583222
17270385192.5963,-54.7720256011972
17275387693.8469,-55.1189327186264
17280390195.0975,-55.3613123104469
17285392696.3482,-55.6344452082022
17290395197.5988,-55.769702941152
17295397698.8494,-55.9675052710763
17300400200.1001,-56.0429483919203
17305402701.3507,-56.0364706356884
17310405202.6013,-55.989524931073
17315407703.8519,-55.9853893138489
17320410205.1026,-55.913691869871
17325412706.3532,-55.8462312504228
17330415207.6038,-55.817167161755
17335417708.8544,-55.805948544071
17340420210.1051,-55.8616082142499
17345422711.3557,-55.9633532940947
17350425212.6063,-56.0611738253336
17355427713.8569,-56.1050506326673
17360430215.1076,-56.2525573455206
17365432716.3582,-56.4247175920461
17370435217.6088,-56.5159584708808
17375437718.8594,-56.5738922940342
17380440220.1101,-56.6815868845473
17385442721.3607,-56.5156346837802
17390445222.6113,-56.585138645286
17395447723.8619,-56.471536742116
17400450225.1126,-56.2496802950985
17405452726.3632,-56.1046291943565
17410455227.6138,-55.9299600185163
17415457728.8644,-55.7598513216729
17420460230.1151,-55.5966687013295
17425462731.3657,-55.5616425250447
17430465232.6163,-55.4186166527628
17435467733.8669,-55.4938290310923
17440470235.1176,-55.5769113958519
17445472736.3682,-55.6398577596262
17450475237.6188,-55.7450095456749
17455477738.8694,-55.8713729649514
17460480240.1201,-55.9536274888652
17465482741.3707,-55.9373417864774
17470485242.6213,-55.9206771361813
17475487743.8719,-55.9011655609013
17480490245.1226,-55.7856730272617
17485492746.3732,-55.6693289226771
17490495247.6238,-55.6399180561919
17495497748.8744,-55.4886971832491
17500500250.1251,-55.3099470056261
17505502751.3757,-55.0835476338395
17510505252.6263,-54.9931146620541
17515507753.8769,-54.8749047408665
17520510255.1276,-54.8854025429176
17525512756.3782,-54.893084062762
17530515257.6288,-54.8264165478736
17535517758.8794,-54.9132326946669
17540520260.1301,-55.016559415851
17545522761.3807,-55.0097098698143
17550525262.6313,-54.9812842712232
17555527763.8819,-54.9311340923775
17560530265.1326,-54.9140641164483
17565532766.3832,-54.8217361853446
17570535267.6338,-54.6968151652533
17575537768.8844,-54.673092356658
17580540270.1351,-54.5350262685513
17585542771.3857,-54.41935119182
17590545272.6363,-54.3493494832437
17595547773.8869,-54.2119314200417
17600550275.1376,-54.2181130413751
17605552776.3882,-54.0762671114319
17610555277.6388,-54.0405382603928
17615557778.8894,-54.0774073177874
17620560280.1401,-54.0915890759713
17625562781.3907,-54.1327359867825
17630565282.6413,-54.1827500539444
17635567783.8919,-54.3310813728362
17640570285.1426,-54.4616646762585
17645572786.3932,-54.4919054416339
17650575287.6438,-54.6424594152423
17655577788.8944,-54.7216323430606
17660580290.1451,-54.7914074977585
17665582791.3957,-54.8425797769083
17670585292.6463,-54.909404152823
17675587793.897,-54.8688124984761
17680590295.1476,-54.980003914427
17685592796.3982,-54.8889934003182
17690595297.6488,-54.9103456165276
17695597798.8994,-54.9232446865659
17700600300.1501,-54.8963336352887
17705602801.4007,-54.8986942136853
17710605302.6513,-54.9253487067531
17715607803.902,-54.9660100400385
17720610305.1526,-55.0736853276027
17725612806.4032,-55.1959960938746
17730615307.6538,-55.2947864275617
17735617808.9045,-55.3945551802766
17740620310.1551,-55.4653049352763
17745622811.4057,-55.5822496966995
17750625312.6563,-55.6941382430396
17755627813.907,-55.7245685227237
17760630315.1576,-55.7843224670863
17765632816.4082,-55.8641162130499
17770635317.6588,-56.0261759847743
17775637818.9095,-56.0324741889775
17780640320.1601,-56.1173578121673
17785642821.4107,-56.1109046870595
17790645322.6613,-56.17693743884
17795647823.912,-56.2226530629134
17800650325.1626,-56.2438916094257
17805652826.4132,-56.2714082351029
17810655327.6638,-56.3212024435918
17815657828.9145,-56.4444142684439
17820660330.1651,-56.566858346332
17825662831.4157,-56.7300213982715
17830665332.6663,-56.8882942203543
17835667833.917,-57.0895622029754
17840670335.1676,-57.2800650887457
17845672836.4182,-57.4984524939602
17850675337.6688,-57.6368285538018
17855677838.9195,-57.7975355129887
17860680340.1701,-57.9821400229598
17865682841.4207,-58.020834039927
17870685342.6713,-58.1241378871509
17875687843.922,-58.1194143971678
17880690345.1726,-58.0645422626219
17885692846.4232,-58.066182747443
17890695347.6738,-58.0173237308176
17895697848.9245,-58.0506392052137
17900700350.1751,-58.0649839361056
17905702851.4257,-58.1472055656984
17910705352.6763,-58.2145043920724
17915707853.927,-58.3109962154186
17920710355.1776,-58.4132552228932
17925712856.4282,-58.5824655717915
17930715357.6788,-58.6545872239327
17935717858.9295,-58.7846361782188
17940720360.1801,-58.8920729552244
17945722861.4307,-58.9451722954539
17950725362.6813,-59.0243042037783
17955727863.932,-59.0864585223719
17960730365.1826,-59.1433555534464
17965732866.4332,-59.2382377345165
17970735367.6838,-59.2634329025738
17975737868.9345,-59.2334846743135
17980740370.1851,-59.2365285740043
17985742871.4357,-59.2690072015639
17990745372.6863,-59.255368542137
17995747873.937,-59.324314366743
18000750375.1876,-59.2863216838029
18005752876.4382,-59.3299673934538
18010755377.6888,-59.2960874768846
18015757878.9395,-59.3816537159847
18020760380.1901,-59.2827050842477
18025762881.4407,-59.35255964256
18030765382.6913,-59.4202592849238
18035767883.942,-59.4347030269437
18040770385.1926,-59.402190151749
18045772886.4432,-59.378668555135
18050775387.6938,-59.3939662361359
18055777888.9445,-59.2880305197081
18060780390.1951,-59.2519831561393
18065782891.4457,-59.1606241979408
18070785392.6964,-58.9691558704682
18075787893.947,-58.8848004416889
18080790395.1976,-58.7452991441708
18085792896.4482,-58.505418506214
18090795397.6988,-58.3901654379811
18095797898.9495,-58.2086281385502
18100800400.2001,-58.1139035156205
18105802901.4507,-58.053917309961
18110805402.7014,-57.8854510789245
18115807903.952,-57.8487194827286
18120810405.2026,-57.7402651068075
18125812906.4532,-57.6207059259788
18130815407.7039,-57.5331299421899
18135817908.9545,-57.4262055754516
18140820410.2051,-57.2869592737849
18145822911.4557,-57.125011305663
18150825412.7064,-57.01359245694
18155827913.957,-56.8204431451374
18160830415.2076,-56.6425637173273
18165832916.4582,-56.4466275803449
18170835417.7089,-56.3539221419616
18175837918.9595,-55.9987424348445
18180840420.2101,-55.9420200204416
18185842921.4607,-55.8105111906956
18190845422.7114,-55.7147966449701
18195847923.962,-55.6227377551382
18200850425.2126,-55.6221835653216
18205852926.4632,-55.6247346929391
18210855427.7139,-55.6196148812021
18215857928.9645,-55.6721804142194
18220860430.2151,-55.6922286968306
18225862931.4657,-55.6119222624697
18230865432.7164,-55.7261978660626
18235867933.967,-55.6863097787116
18240870435.2176,-55.7066256269043
18245872936.4682,-55.6729414361229
18250875437.7189,-55.5553065322234
18255877938.9695,-55.4673407362185
18260880440.2201,-55.4754344218982
18265882941.4707,-55.2676666883301
18270885442.7214,-55.319779641362
18275887943.972,-55.265376038238
18280890445.2226,-55.3752549688315
18285892946.4732,-55.5014663290191
18290895447.7239,-55.5529252813963
18295897948.9745,-55.7114563356391
18300900450.2251,-55.9115122920088
18305902951.4757,-56.0884392311055
18310905452.7264,-56.244114003329
18315907953.977,-56.438500574624
18320910455.2276,-56.532043491431
18325912956.4782,-56.5884331736417
18330915457.7289,-56.6397346791462
18335917958.9795,-56.6907743518835
18340920460.2301,-56.8510856360868
18345922961.4807,-56.7511045431264
18350925462.7314,-56.7989984810584
18355927963.982,-56.7960586929756
18360930465.2326,-56.8895869750376
18365932966.4832,-57.0258906763595
18370935467.7339,-57.1642728413895
18375937968.9845,-57.3604645040516
18380940470.2351,-57.588793579488
18385942971.4857,-57.8033759238226
18390945472.7364,-57.9810057645421
18395947973.987,-58.1136860183912
18400950475.2376,-58.2643301121605
18405952976.4882,-58.3245456883674
18410955477.7389,-58.4266292009089
18415957978.9895,-58.5669792384986
18420960480.2401,-58.5938983218469
18425962981.4907,-58.6407727302637
18430965482.7414,-58.7067204441455
18435967983.992,-58.7494590563789
18440970485.2426,-58.7638290525096
18445972986.4932,-58.8212567113225
18450975487.7439,-58.8087287287381
18455977988.9945,-58.8449147463387
18460980490.2451,-58.8832089233249
18465982991.4957,-58.9599455134277
18470985492.7464,-58.9703173581122
18475987993.997,-59.0746774103072
18480990495.2476,-59.1229435427105
18485992996.4982,-59.2167457694327
18490995497.7489,-59.3293765458122
18495997998.9995,-59.5048284068129
18501000500.2501,-59.5701905981778
18506003001.5008,-59.7038912758492
18511005502.7514,-59.7939937736592
18516008004.002,-59.7696957047401
18521010505.2526,-59.8458300742674
18526013006.5033,-59.903959313056
18531015507.7539,-59.8315073155046
18536018009.0045,-59.8311028572671
18541020510.2551,-59.8732546039074
18546023011.5058,-59.7990013694442
18551025512.7564,-59.843105826465
18556028014.007,-59.7566718426209
18561030515.2576,-59.8173090339769
18566033016.5083,-59.8786194137582
18571035517.7589,-59.955326435432
18576038019.0095,-60.0197501069303
18581040520.2601,-60.0458047176491
18586043021.5108,-60.1493379326356
18591045522.7614,-60.1753540223895
18596048024.012,-60.1791955877113
18601050525.2626,-60.1732487577023
18606053026.5133,-60.1920034840358
18611055527.7639,-60.1516324600912
18616058029.0145,-60.1405914709442
18621060530.2651,-60.0194841691139
18626063031.5158,-60.0188191154281
18631065532.7664,-60.0263388811356
18636068034.017,-59.9242244576385
18641070535.2676,-59.9357475216715
18646073036.5183,-59.8090606097016
18651075537.7689,-59.7476395846304
18656078039.0195,-59.6994724583414
18661080540.2701,-59.6416374410815
18666083041.5208,-59.6774459541665
18671085542.7714,-59.6378955868558
18676088044.022,-59.6675707179231
18681090545.2726,-59.5708754217955
18686093046.5233,-59.6599573641199
18691095547.7739,-59.5714192033322
18696098049.0245,-59.4578064567703
18701100550.2751,-59.379133062006
18706103051.5258,-59.3512630399183
18711105552.7764,-59.2384777132658
18716108054.027,-59.1040173626305
18721110555.2776,-58.9505123555428
18726113056.5283,-58.8337299783515
18731115557.7789,-58.6937643741742
18736118059.0295,-58.7010155641775
18741120560.2801,-58.6005364183522
18746123061.5308,-58.5358730103493
18751125562.7814,-58.561861660914
18756128064.032,-58.5298578759663
18761130565.2826,-58.5058385201278
18766133066.5333,-58.5568165471453
18771135567.7839,-58.5873880138999
18776138069.0345,-58.5649937863763
18781140570.2851,-58.4894443381039
18786143071.5358,-58.4842881437421
18791145572.7864,-58.3652642545295
18796148074.037,-58.2708329841536
18801150575.2876,-58.202804023175
18806153076.5383,-58.1530537081699
18811155577.7889,-58.0306594333067
18816158079.0395,-57.9637428782068
18821160580.2901,-57.9537970382116
18826163081.5408,-57.9959328352648
18831165582.7914,-57.9330093054327
18836168084.042,-57.8491677394178
18841170585.2926,-57.8134849724299
18846173086.5433,-57.8128342489932
18851175587.7939,-57.8199452284694
18856178089.0445,-57.7503519804486
18861180590.2951,-57.768244531
18866183091.5458,-57.7382527163417
18871185592.7964,-57.7821780960572
18876188094.047,-57.8197504844625
18881190595.2976,-57.7940638421642
18886193096.5483,-57.891037901883
18891195597.7989,-57.8601913073031
18896198099.0495,-57.9016373342129
18901200600.3001,-57.9183738814824
18906203101.5508,-57.8980381516674
18911205602.8014,-57.9011474521999
18916208104.052,-57.8781116591468
18921210605.3027,-57.9568862050817
18926213106.5533,-57.9017714467416
18931215607.8039,-58.0121623993296
18936218109.0545,-58.1618158619434
18941220610.3052,-58.2157140945777
18946223111.5558,-58.2777720742038
18951225612.8064,-58.3809460044936
18956228114.057,-58.5397550415384
18961230615.3077,-58.5992523286345
18966233116.5583,-58.7551094247537
18971235617.8089,-58.7659831584794
18976238119.0595,-58.7630674135286
18981240620.3102,-58.8182358935239
18986243121.5608,-58.733360947104
18991245622.8114,-58.797649731695
18996248124.062,-58.7225888876229
19001250625.3127,-58.8180321829529
19006253126.5633,-58.9142845248563
19011255627.8139,-58.8795349110828
19016258129.0645,-58.9537607138678
19021260630.3152,-59.1207254204056
19026263131.5658,-59.2126559488735
19031265632.8164,-59.2345080739082
19036268134.067,-59.318106753907
19041270635.3177,-59.3981206066043
19046273136.5683,-59.4300350625984
19051275637.8189,-59.5021043762631
19056278139.0695,-59.6083446250416
19061280640.3202,-59.7277497801134
19066283141.5708,-59.7864140395017
19071285642.8214,-59.8049939052361
19076288144.072,-59.8953268154445
19081290645.3227,-59.9588070793844
19086293146.5733,-59.9585936808295
19091295647.8239,-59.9455463553546
19096298149.0745,-60.0405068302152
19101300650.3252,-60.0552102359717
19106303151.5758,-60.0458954840642
19111305652.8264,-60.0013167355167
19116308154.077,-60.0880303694101
19121310655.3277,-59.9485786427295
19126313156.5783,-59.9854662931551
19131315657.8289,-59.9500946220228
19136318159.0795,-59.9367216423907
19141320660.3302,-59.9132312343017
19146323161.5808,-59.9336470084527
19151325662.8314,-59.8859773744906
19156328164.082,-59.92741191804
19161330665.3327,-59.9209614585576
19166333166.5833,-59.9342478731168
19171335667.8339,-59.9402114401306
