Trace
Swept SA
A.17.55,N9010A
526 B25 DP2 EP3 FS1 MPB RTL ,01
Segment,0
Number of Points,2000
Sweep Time,0.050641333333
Start Frequency,16500000000
Stop Frequency,26500000000
Average Count,100
Average Type,Power(RMS)
RBW,3000000
RBW Filter,Gaussian
RBW Filter BW,3dB
VBW,300000
Sweep Type,Swept
X Axis Scale,Lin
PreAmp State,Off
PreAmp Band,Low
Trigger Source,Free
Trigger Level,1.2
Trigger Slope,Positive
Trigger Delay,0
Phase Noise Optimization,Fast
Swept If Gain,Low
FFT If Gain,Autorange
RF Coupling,AC
FFT Width,411900
Ext Ref,10000000
Input,RF
RF Calibrator,Off
Attenuation,10
Ref Level Offset,0
External Gain,0
Trace Type,Average
Detector,Average
Trace Math,Off
Trace Math Oper1,Trace5
Trace Math Oper2,Trace6
Trace Math Offset,0
Normalize,Off
Trace Name,Trace1
X Axis Units,Hz
Y Axis Units,dBm
DATA
16500000000,-52.666723722153
16505002501.2506,-52.3740955828217
16510005002.5013,-52.1180240620269
16515007503.7519,-51.9133883137767
16520010005.0025,-51.6909718338807
16525012506.2531,-51.556286754177
16530015007.5038,-51.6855589752439
16535017508.7544,-51.861926390677
16540020010.005,-52.1806097195058
16545022511.2556,-52.5695553577908
16550025012.5063,-52.9433917070934
16555027513.7569,-53.2716411302783
16560030015.0075,-53.5614914819605
16565032516.2581,-53.8197612352888
16570035017.5088,-53.9116503122152
16575037518.7594,-53.9897186895588
16580040020.01,-53.8414686639399
16585042521.2606,-53.6809645275178
16590045022.5113,-53.471850993781
16595047523.7619,-53.174263599164
16600050025.0125,-52.8019401393579
16605052526.2631,-52.687061206096
16610055027.5138,-52.5197990428081
16615057528.7644,-52.5120414710705
16620060030.015,-52.6377481530157
16625062531.2656,-52.7891788513803
16630065032.5163,-53.0917424592704
16635067533.7669,-53.3268921105253
16640070035.0175,-53.6399549823351
16645072536.2681,-53.863013761958
16650075037.5188,-54.0599184484787
16655077538.7694,-54.221179080755
16660080040.02,-54.2331837809917
16665082541.2706,-54.2215651849348
16670085042.5213,-54.1120115229337
16675087543.7719,-53.9894301416329
16680090045.0225,-53.8060380777548
16685092546.2731,-53.5080531612339
16690095047.5238,-53.2613052402309
16695097548.7744,-53.0033847483109
16700100050.025,-52.7221104878927
16705102551.2756,-52.589555598096
16710105052.5263,-52.493936207669
16715107553.7769,-52.6571169010202
16720110055.0275,-52.7978774619784
16725112556.2781,-53.1700049432825
16730115057.5288,-53.4785300049974
16735117558.7794,-53.7995839269863
16740120060.03,-53.9657727565179
16745122561.2806,-54.1994063365727
16750125062.5313,-54.3131535435836
16755127563.7819,-54.2468089775476
16760130065.0325,-54.1637133270492
16765132566.2831,-53.9571739642743
16770135067.5338,-53.6858153562644
16775137568.7844,-53.3450524017607
16780140070.035,-52.9592423135703
16785142571.2856,-52.6154908186432
16790145072.5363,-52.4013136687275
16795147573.7869,-52.2629651402844
16800150075.0375,-52.3673497729754
16805152576.2881,-52.4596537325111
16810155077.5388,-52.7622279610136
16815157578.7894,-53.103419530594
16820160080.04,-53.3602293508802
16825162581.2906,-53.6066149731567
16830165082.5413,-53.7288355846238
16835167583.7919,-53.7756957523603
16840170085.0425,-53.7188354273379
16845172586.2931,-53.6283641125359
16850175087.5438,-53.511774733557
16855177588.7944,-53.2432616632661
16860180090.045,-52.9748316114659
16865182591.2956,-52.7355164103442
16870185092.5463,-52.4807400780423
16875187593.7969,-52.1696240523086
16880190095.0475,-52.0257648282848
16885192596.2981,-51.8727223200497
16890195097.5488,-51.92800173143
16895197598.7994,-52.0636400764329
16900200100.05,-52.2251227700385
16905202601.3007,-52.3943621259881
16910205102.5513,-52.5960998795975
16915207603.8019,-52.7817492887955
16920210105.0525,-52.9838592363528
16925212606.3032,-53.0125959285844
16930215107.5538,-53.0942499430491
16935217608.8044,-53.0515044284659
16940220110.055,-52.9764108393804
16945222611.3057,-52.8413841582734
16950225112.5563,-52.7089192921854
16955227613.8069,-52.5092512613898
16960230115.0575,-52.3654864057157
16965232616.3082,-52.1480857017779
16970235117.5588,-51.9872023593244
16975237618.8094,-52.0495480267804
16980240120.06,-52.100843139755
16985242621.3107,-52.2118124320724
16990245122.5613,-52.4766249670261
16995247623.8119,-52.7541863541472
17000250125.0625,-53.0772280759093
17005252626.3132,-53.3728063275628
17010255127.5638,-53.5910230608304
17015257628.8144,-53.7216821839851
17020260130.065,-53.7919465540492
17025262631.3157,-53.7936541722936
17030265132.5663,-53.7324303531846
17035267633.8169,-53.6225537598027
17040270135.0675,-53.4225733551062
17045272636.3182,-53.2262600182444
17050275137.5688,-52.9807206288676
17055277638.8194,-52.7296147466509
17060280140.07,-52.5947009618895
17065282641.3207,-52.5153782081899
17070285142.5713,-52.5167589759644
17075287643.8219,-52.6449506782308
17080290145.0725,-52.8463821096103
17085292646.3232,-53.1439033239573
17090295147.5738,-53.4076926158433
17095297648.8244,-53.6479249568298
17100300150.075,-53.3498043837994
17105302651.3257,-53.4454939515117
17110305152.5763,-53.5736558567937
17115307653.8269,-53.5992801198261
17120310155.0775,-53.5638987042131
17125312656.3282,-53.466029500102
17130315157.5788,-53.2448110894242
17135317658.8294,-52.985739340741
17140320160.08,-52.7657730677196
17145322661.3307,-52.5609604325792
17150325162.5813,-52.3156730034034
17155327663.8319,-52.2017489956014
17160330165.0825,-52.214903605377
17165332666.3332,-52.3315569070182
17170335167.5838,-52.4727397534319
17175337668.8344,-52.7279309258441
17180340170.085,-53.0039020988742
17185342671.3357,-53.3310676097774
17190345172.5863,-53.6063264152016
17195347673.8369,-53.8823430368307
17200350175.0875,-54.0023172472873
17205352676.3382,-54.0966806415911
17210355177.5888,-54.2014129800835
17215357678.8394,-54.196539480578
17220360180.09,-54.0538170015868
17225362681.3407,-53.8963123938205
17230365182.5913,-53.7997986836937
17235367683.8419,-53.603344078491
17240370185.0925,-53.5998768150284
17245372686.3432,-53.5673945150534
17250375187.5938,-53.6704988007072
17255377688.8444,-53.8808807948025
17260380190.095,-54.1305808464213
17265382691.3457,-54.4643043818939
17270385192.5963,-54.7931035821197
17275387693.8469,-55.0732990757094
17280390195.0975,-55.4390116961147
17285392696.3482,-55.7002183191023
17290395197.5988,-55.787890244888
17295397698.8494,-55.9881991645887
17300400200.1001,-56.0244585249671
17305402701.3507,-56.0300931336371
17310405202.6013,-56.0280624575199
17315407703.8519,-55.9333974149421
17320410205.1026,-55.853560953951
17325412706.3532,-55.8298381393313
17330415207.6038,-55.7973080054146
17335417708.8544,-55.803421832606
17340420210.1051,-55.8660416265636
17345422711.3557,-55.9106750724545
17350425212.6063,-55.9723126228763
17355427713.8569,-56.1397246264977
17360430215.1076,-56.3042373762265
17365432716.3582,-56.4006018859416
17370435217.6088,-56.477606181834
17375437718.8594,-56.5659091614026
17380440220.1101,-56.5993118241319
17385442721.3607,-56.5803853088392
17390445222.6113,-56.4888199447285
17395447723.8619,-56.3160635330504
17400450225.1126,-56.1962127919999
17405452726.3632,-56.0270664908523
17410455227.6138,-55.8564741629873
17415457728.8644,-55.7147645521168
17420460230.1151,-55.5495939981557
17425462731.3657,-55.4431444353538
17430465232.6163,-55.408945777975
17435467733.8669,-55.4540501503538
17440470235.1176,-55.539306147667
17445472736.3682,-55.6422547250256
17450475237.6188,-55.7059064755184
17455477738.8694,-55.8233424651486
17460480240.1201,-55.9402121055715
17465482741.3707,-55.9834331772214
17470485242.6213,-56.0137882952233
17475487743.8719,-55.8816967496639
17480490245.1226,-55.8518081160355
17485492746.3732,-55.6857212100756
17490495247.6238,-55.5468234022741
17495497748.8744,-55.4294532506284
17500500250.1251,-55.286679033686
17505502751.3757,-55.1892496468765
17510505252.6263,-54.9569440073633
17515507753.8769,-54.8834790064463
17520510255.1276,-54.8082837275804
17525512756.3782,-54.8444690663932
17530515257.6288,-54.8430932417058
17535517758.8794,-54.8710055519145
17540520260.1301,-54.9837322040828
17545522761.3807,-54.971801372194
17550525262.6313,-54.9476355845127
17555527763.8819,-54.9834737709327
17560530265.1326,-54.9406489654181
17565532766.3832,-54.8334243245749
17570535267.6338,-54.7208538524567
17575537768.8844,-54.6067460600833
17580540270.1351,-54.4778937763217
17585542771.3857,-54.3845955841597
17590545272.6363,-54.2760405313273
17595547773.8869,-54.2567197472211
17600550275.1376,-54.0542615458158
17605552776.3882,-54.1475766951344
17610555277.6388,-54.1079429594806
17615557778.8894,-54.0620972410956
17620560280.1401,-54.1308770846303
17625562781.3907,-54.2077544810245
17630565282.6413,-54.23007823129
17635567783.8919,-54.2967361360669
17640570285.1426,-54.390118575259
17645572786.3932,-54.5070852288724
17650575287.6438,-54.5380720142673
17655577788.8944,-54.7134586809678
17660580290.1451,-54.7897546260541
17665582791.3957,-54.8283728153054
17670585292.6463,-54.850630041374
17675587793.897,-54.8351722556659
17680590295.1476,-54.8702470442021
17685592796.3982,-54.8733975906965
17690595297.6488,-54.8108019397643
17695597798.8994,-54.8185796359954
17700600300.1501,-54.8521056212434
17705602801.4007,-54.8600063807755
17710605302.6513,-54.8915658481364
17715607803.902,-54.980811618336
17720610305.1526,-55.0801128833926
17725612806.4032,-55.0938995494694
17730615307.6538,-55.2054261962196
17735617808.9045,-55.3675463076123
17740620310.1551,-55.4247148218882
17745622811.4057,-55.5317099280398
17750625312.6563,-55.5959413024385
17755627813.907,-55.7076758414684
17760630315.1576,-55.83530678308
17765632816.4082,-55.8758023045783
17770635317.6588,-55.921761284022
17775637818.9095,-56.0418067244849
17780640320.1601,-56.110414549839
17785642821.4107,-56.1289930127015
17790645322.6613,-56.1676537646926
17795647823.912,-56.1182830274241
17800650325.1626,-56.1991727294303
17805652826.4132,-56.1776850511465
17810655327.6638,-56.3009250601014
17815657828.9145,-56.4045785634708
17820660330.1651,-56.5533676976619
17825662831.4157,-56.7239636855996
17830665332.6663,-56.8834720842388
17835667833.917,-57.093027936213
17840670335.1676,-57.2347768191134
17845672836.4182,-57.4987321426028
17850675337.6688,-57.6590187273036
17855677838.9195,-57.8564444123684
17860680340.1701,-57.9460752997564
17865682841.4207,-58.041561368938
17870685342.6713,-58.1401870235563
17875687843.922,-58.107102347353
17880690345.1726,-58.0292439979052
17885692846.4232,-58.055136529743
17890695347.6738,-58.0644206642591
17895697848.9245,-58.0103352453799
17900700350.1751,-58.028250850079
17905702851.4257,-58.1189757140231
17910705352.6763,-58.2303110503956
17915707853.927,-58.2817958225351
17920710355.1776,-58.3645348876819
17925712856.4282,-58.472026363203
17930715357.6788,-58.6271391403163
17935717858.9295,-58.8383002200864
17940720360.1801,-58.8546799669913
17945722861.4307,-58.9332719213375
17950725362.6813,-59.0078646972478
17955727863.932,-59.1171329890717
17960730365.1826,-59.1514035214004
17965732866.4332,-59.1965752869838
17970735367.6838,-59.2108176163338
17975737868.9345,-59.2312196570277
17980740370.1851,-59.2213168689549
17985742871.4357,-59.2520125302154
17990745372.6863,-59.3278311187688
17995747873.937,-59.2884314645258
18000750375.1876,-59.2780581901848
18005752876.4382,-59.2994038631536
18010755377.6888,-59.3194243447779
18015757878.9395,-59.3230145082138
18020760380.1901,-59.2943886791614
18025762881.4407,-59.3511478480977
18030765382.6913,-59.3862527524805
18035767883.942,-59.4183908215398
18040770385.1926,-59.3949047073825
18045772886.4432,-59.4620941225301
18050775387.6938,-59.4033721680587
18055777888.9445,-59.2825423105788
18060780390.1951,-59.228945956302
18065782891.4457,-59.1340077352216
18070785392.6964,-59.0025829461343
18075787893.947,-58.8349806303154
18080790395.1976,-58.6287926644589
18085792896.4482,-58.5802772855248
18090795397.6988,-58.3783185283718
18095797898.9495,-58.1427677301421
18100800400.2001,-58.0675115986039
18105802901.4507,-58.0186850693331
18110805402.7014,-57.9048604512081
18115807903.952,-57.8256414747391
18120810405.2026,-57.6847482506213
18125812906.4532,-57.6223023863405
18130815407.7039,-57.5417068319663
18135817908.9545,-57.4390050534936
18140820410.2051,-57.2934615883533
18145822911.4557,-57.176685394859
18150825412.7064,-56.9905721682911
18155827913.957,-56.8853033487829
18160830415.2076,-56.638465715731
18165832916.4582,-56.4486198321992
18170835417.7089,-56.3202347534634
18175837918.9595,-56.0231289785651
18180840420.2101,-55.8721879881535
18185842921.4607,-55.803302122547
18190845422.7114,-55.6646794157705
18195847923.962,-55.7157401071253
18200850425.2126,-55.7044232627522
18205852926.4632,-55.6772483823351
18210855427.7139,-55.6595562645077
18215857928.9645,-55.6755142856431
18220860430.2151,-55.6637993157139
18225862931.4657,-55.7004314908826
18230865432.7164,-55.6852901166252
18235867933.967,-55.7339243236726
18240870435.2176,-55.6152662170288
18245872936.4682,-55.6304215397405
18250875437.7189,-55.6216481512105
18255877938.9695,-55.4497606670605
18260880440.2201,-55.4577078499289
18265882941.4707,-55.3327637100676
18270885442.7214,-55.3294004673389
18275887943.972,-55.23839203042
18280890445.2226,-55.3112333845585
18285892946.4732,-55.3803965540693
18290895447.7239,-55.5573304563748
18295897948.9745,-55.684935615488
18300900450.2251,-55.8922093504454
18305902951.4757,-56.0418969217315
18310905452.7264,-56.2160193331469
18315907953.977,-56.4202332402948
18320910455.2276,-56.5125242220736
18325912956.4782,-56.6195524657921
18330915457.7289,-56.645647579887
18335917958.9795,-56.6588755337696
18340920460.2301,-56.6083681851917
18345922961.4807,-56.7408550492819
18350925462.7314,-56.7420739281879
18355927963.982,-56.7988699548374
18360930465.2326,-56.8996235380466
18365932966.4832,-57.0288943228822
18370935467.7339,-57.1470200353484
18375937968.9845,-57.3413857215902
18380940470.2351,-57.5387177695386
18385942971.4857,-57.76489562646
18390945472.7364,-57.9528391720668
18395947973.987,-58.1593928150791
18400950475.2376,-58.26193453657
18405952976.4882,-58.3650656255241
18410955477.7389,-58.4534918610124
18415957978.9895,-58.5331232252559
18420960480.2401,-58.6168432477957
18425962981.4907,-58.62158755552
18430965482.7414,-58.643191745866
18435967983.992,-58.7560542737775
18440970485.2426,-58.7417883189524
18445972986.4932,-58.7817920708044
18450975487.7439,-58.8063020455292
18455977988.9945,-58.8310234360503
18460980490.2451,-58.8071549240604
18465982991.4957,-58.9434371350957
18470985492.7464,-58.9534654208325
18475987993.997,-59.0304303030645
18480990495.2476,-59.1345127400255
18485992996.4982,-59.1787472230575
18490995497.7489,-59.3638935671907
18495997998.9995,-59.4979638148875
18501000500.2501,-59.6295178983737
18506003001.5008,-59.6897069598413
18511005502.7514,-59.7829689458504
18516008004.002,-59.8316791289509
18521010505.2526,-59.8422088967093
18526013006.5033,-59.8652993324766
18531015507.7539,-59.8410611022016
18536018009.0045,-59.8415113760888
18541020510.2551,-59.8615158512644
18546023011.5058,-59.8356377181276
18551025512.7564,-59.8465095469769
18556028014.007,-59.838913964129
18561030515.2576,-59.8232679414248
18566033016.5083,-59.9001460742162
18571035517.7589,-59.9398567794544
18576038019.0095,-59.951896912141
18581040520.2601,-60.0433289299714
18586043021.5108,-60.0514358716668
18591045522.7614,-60.1222563136544
18596048024.012,-60.134360226056
18601050525.2626,-60.1422776510575
18606053026.5133,-60.1010786113077
18611055527.7639,-60.0884329052018
18616058029.0145,-60.1558730643713
18621060530.2651,-60.0864744397011
18626063031.5158,-60.0709244693788
18631065532.7664,-59.9892459363907
18636068034.017,-59.8700111838971
18641070535.2676,-59.7937517642379
18646073036.5183,-59.7742631918076
18651075537.7689,-59.6792992617863
18656078039.0195,-59.6346769365325
18661080540.2701,-59.6625277337009
18666083041.5208,-59.601083361978
18671085542.7714,-59.627148193313
18676088044.022,-59.6171966565903
18681090545.2726,-59.6042940919612
18686093046.5233,-59.5742612303343
18691095547.7739,-59.5534164921573
18696098049.0245,-59.5088015075998
18701100550.2751,-59.4108950542918
18706103051.5258,-59.2925511338567
18711105552.7764,-59.2092283011437
18716108054.027,-59.0901804478294
18721110555.2776,-58.9603838259919
18726113056.5283,-58.7560124729667
18731115557.7789,-58.7708466101437
18736118059.0295,-58.6525871524503
18741120560.2801,-58.576902435922
18746123061.5308,-58.5329622348685
18751125562.7814,-58.5418695456986
18756128064.032,-58.5637019179793
18761130565.2826,-58.5609776775485
18766133066.5333,-58.6036858996546
18771135567.7839,-58.5731368604519
18776138069.0345,-58.5172273271728
18781140570.2851,-58.4730484087575
18786143071.5358,-58.4557893423013
18791145572.7864,-58.3407287308505
18796148074.037,-58.2953909721206
18801150575.2876,-58.1538501791106
18806153076.5383,-58.133882976969
18811155577.7889,-58.0610699454016
18816158079.0395,-58.0125506838616
18821160580.2901,-57.9419995112439
18826163081.5408,-57.9322496107967
18831165582.7914,-57.8959502787025
18836168084.042,-57.8577374459005
18841170585.2926,-57.8032227521387
18846173086.5433,-57.7954264745889
18851175587.7939,-57.7368813955084
18856178089.0445,-57.6885048312167
18861180590.2951,-57.8046120451839
18866183091.5458,-57.7736286038534
18871185592.7964,-57.7352545922953
18876188094.047,-57.8454422476912
18881190595.2976,-57.8905682609506
18886193096.5483,-57.8327117148057
18891195597.7989,-57.8860675843152
18896198099.0495,-57.8292383931696
18901200600.3001,-57.8839414425175
18906203101.5508,-57.9426243106482
18911205602.8014,-57.8922127283858
18916208104.052,-57.8249657647893
18921210605.3027,-57.8536614849968
18926213106.5533,-57.9614744785272
18931215607.8039,-58.0072840681467
18936218109.0545,-58.0578089179201
18941220610.3052,-58.1126321527027
18946223111.5558,-58.2709565209074
18951225612.8064,-58.4561549983253
18956228114.057,-58.5248482663222
18961230615.3077,-58.5645649533387
18966233116.5583,-58.6598157311074
18971235617.8089,-58.7195518018205
18976238119.0595,-58.7376326109392
18981240620.3102,-58.7363702457165
18986243121.5608,-58.779275080583
18991245622.8114,-58.7254634023259
18996248124.062,-58.79489366847
19001250625.3127,-58.757439691242
19006253126.5633,-58.8557377729754
19011255627.8139,-58.8926632152591
19016258129.0645,-58.9414081391896
19021260630.3152,-59.0569035037348
19026263131.5658,-59.1117788470746
19031265632.8164,-59.2096359384761
19036268134.067,-59.2829105098003
19041270635.3177,-59.3837079003024
19046273136.5683,-59.4307344825851
19051275637.8189,-59.5699833291095
19056278139.0695,-59.5809471759151
19061280640.3202,-59.6969511619996
19066283141.5708,-59.7189636014602
19071285642.8214,-59.7840756956566
19076288144.072,-59.8083752580142
19081290645.3227,-59.8769124827324
19086293146.5733,-60.0005006305807
19091295647.8239,-60.0088403620613
19096298149.0745,-60.0625693994235
19101300650.3252,-60.0353255234789
19106303151.5758,-60.0117324122865
19111305652.8264,-60.0308512626848
19116308154.077,-60.0225990622062
19121310655.3277,-59.9466429806113
19126313156.5783,-59.9737784261145
19131315657.8289,-59.9244845756944
19136318159.0795,-59.9587771758804
19141320660.3302,-59.9420544255545
19146323161.5808,-59.973850177191
19151325662.8314,-59.9430286513599
19156328164.082,-59.8793974095039
19161330665.3327,-59.8866258149313
19166333166.5833,-59.8209854214885
19171335667.8339,-59.9186777445503
